# Pbox  12860.00  17 4095  0.0     0    1.0000 0.26907     4
# VJ2.2C  pw (us)  pwr  pwrf  dres  dmf  dcyc   B1max (kHz)  Stype
# ---------------------------------------------------------------
# Pxsim 0.0128600 266.7695 0.000 2099.5 0.0000000 0.0000000 0.00
# data: pw (s) B1max (Hz) status sw (Hz) T1 (s)   T2 (s) RDC (Hz)
# ---------------------------------------------------------------
# Pbox.inp data :
# ~~~~~~~~~~~~~~~~~~~~~~~~~~~Waves~~~~~~~~~~~~~~~~~~~~~~~~~~~~~~~~~~
#   shape   bw(/pw)   ofs  st  ph  fla  trev  d1  d2   d0   wrp  php
# ~~~~~~~~~~~~~~~~~~~~~~~~~~~~~~~~~~~~~~~~~~~~~~~~~~~~~~~~~~~~~~~~~~
# { eburp1 350.000 0.000 0  }
#
# type      = r          mod       = n          dres      = n         
# steps     = n          stepsize  = 10.00      attn      = i         
# refofs    = n          wrap      = n          sfrq      = n         
# sucyc     = d          reps      = 2          header    = y         
# bscor     = n          pad1      = n          pad2      = n         
# bsim      = n          T1        = n          T2        = n         
# rdc       = n          dcyc      = n          sw        = n         
#
# RF Calibration Data :  ref_pwr   = 36         ref_pw90  = 104.25
# ~~~~~~~~~~~~~~~~~~~~~
###
# ------------------- Shape data ------------------
# pwtot      = 0.0128600 (total pw, s)
# power      = 17 (power level, dB)
# pwrf       = 4095 (fine power)
# B1max      = 0.2691 (B1max, kHz)
# B1rms      = 0.1207 (B1[RMS], kHz)
# nptot      = 1286 (total number of steps)
# stepsize   = 10.00 (length of a single step, us)
# maxamp     = 1015.2 (max amplitude)
# ------------------------------------------------- 
#      phase      amplitude   length     gate 
# ------------------------------------------------- 
        0.00      1023.00      0.0        0
       0.000        1.962      1.0        1
       0.000        0.754      1.0        1
       0.000        0.000      1.0        1
     180.000        0.000      1.0        1
     180.000        0.766      1.0        1
     180.000        1.905      1.0        1
     180.000        3.029      1.0        1
     180.000        4.135      1.0        1
     180.000        5.226      1.0        1
     180.000        6.301      1.0        1
     180.000        7.360      1.0        1
     180.000        8.404      1.0        1
     180.000        9.433      1.0        1
     180.000       10.447      1.0        1
     180.000       11.446      1.0        1
     180.000       12.431      1.0        1
     180.000       13.401      1.0        1
     180.000       14.357      1.0        1
     180.000       15.300      1.0        1
     180.000       16.228      1.0        1
     180.000       17.143      1.0        1
     180.000       18.046      1.0        1
     180.000       18.935      1.0        1
     180.000       19.811      1.0        1
     180.000       20.675      1.0        1
     180.000       21.526      1.0        1
     180.000       22.365      1.0        1
     180.000       23.193      1.0        1
     180.000       24.008      1.0        1
     180.000       24.812      1.0        1
     180.000       25.605      1.0        1
     180.000       26.387      1.0        1
     180.000       27.158      1.0        1
     180.000       27.919      1.0        1
     180.000       28.669      1.0        1
     180.000       29.408      1.0        1
     180.000       30.138      1.0        1
     180.000       30.858      1.0        1
     180.000       31.569      1.0        1
     180.000       32.270      1.0        1
     180.000       32.962      1.0        1
     180.000       33.645      1.0        1
     180.000       34.319      1.0        1
     180.000       34.984      1.0        1
     180.000       35.641      1.0        1
     180.000       36.291      1.0        1
     180.000       36.932      1.0        1
     180.000       37.565      1.0        1
     180.000       38.191      1.0        1
     180.000       38.809      1.0        1
     180.000       39.420      1.0        1
     180.000       40.024      1.0        1
     180.000       40.621      1.0        1
     180.000       41.211      1.0        1
     180.000       41.795      1.0        1
     180.000       42.373      1.0        1
     180.000       42.944      1.0        1
     180.000       43.510      1.0        1
     180.000       44.070      1.0        1
     180.000       44.624      1.0        1
     180.000       45.172      1.0        1
     180.000       45.715      1.0        1
     180.000       46.253      1.0        1
     180.000       46.786      1.0        1
     180.000       47.314      1.0        1
     180.000       47.837      1.0        1
     180.000       48.356      1.0        1
     180.000       48.870      1.0        1
     180.000       49.380      1.0        1
     180.000       49.886      1.0        1
     180.000       50.387      1.0        1
     180.000       50.885      1.0        1
     180.000       51.379      1.0        1
     180.000       51.869      1.0        1
     180.000       52.355      1.0        1
     180.000       52.838      1.0        1
     180.000       53.317      1.0        1
     180.000       53.794      1.0        1
     180.000       54.267      1.0        1
     180.000       54.737      1.0        1
     180.000       55.204      1.0        1
     180.000       55.668      1.0        1
     180.000       56.129      1.0        1
     180.000       56.587      1.0        1
     180.000       57.043      1.0        1
     180.000       57.496      1.0        1
     180.000       57.946      1.0        1
     180.000       58.395      1.0        1
     180.000       58.840      1.0        1
     180.000       59.283      1.0        1
     180.000       59.724      1.0        1
     180.000       60.163      1.0        1
     180.000       60.599      1.0        1
     180.000       61.033      1.0        1
     180.000       61.465      1.0        1
     180.000       61.895      1.0        1
     180.000       62.323      1.0        1
     180.000       62.748      1.0        1
     180.000       63.172      1.0        1
     180.000       63.593      1.0        1
     180.000       64.012      1.0        1
     180.000       64.430      1.0        1
     180.000       64.845      1.0        1
     180.000       65.258      1.0        1
     180.000       65.669      1.0        1
     180.000       66.078      1.0        1
     180.000       66.485      1.0        1
     180.000       66.890      1.0        1
     180.000       67.293      1.0        1
     180.000       67.693      1.0        1
     180.000       68.092      1.0        1
     180.000       68.488      1.0        1
     180.000       68.882      1.0        1
     180.000       69.273      1.0        1
     180.000       69.663      1.0        1
     180.000       70.049      1.0        1
     180.000       70.434      1.0        1
     180.000       70.816      1.0        1
     180.000       71.195      1.0        1
     180.000       71.572      1.0        1
     180.000       71.946      1.0        1
     180.000       72.317      1.0        1
     180.000       72.686      1.0        1
     180.000       73.051      1.0        1
     180.000       73.414      1.0        1
     180.000       73.773      1.0        1
     180.000       74.129      1.0        1
     180.000       74.483      1.0        1
     180.000       74.832      1.0        1
     180.000       75.179      1.0        1
     180.000       75.521      1.0        1
     180.000       75.861      1.0        1
     180.000       76.196      1.0        1
     180.000       76.528      1.0        1
     180.000       76.855      1.0        1
     180.000       77.179      1.0        1
     180.000       77.498      1.0        1
     180.000       77.813      1.0        1
     180.000       78.124      1.0        1
     180.000       78.430      1.0        1
     180.000       78.732      1.0        1
     180.000       79.028      1.0        1
     180.000       79.320      1.0        1
     180.000       79.607      1.0        1
     180.000       79.888      1.0        1
     180.000       80.164      1.0        1
     180.000       80.435      1.0        1
     180.000       80.700      1.0        1
     180.000       80.959      1.0        1
     180.000       81.213      1.0        1
     180.000       81.460      1.0        1
     180.000       81.701      1.0        1
     180.000       81.936      1.0        1
     180.000       82.164      1.0        1
     180.000       82.386      1.0        1
     180.000       82.600      1.0        1
     180.000       82.808      1.0        1
     180.000       83.009      1.0        1
     180.000       83.202      1.0        1
     180.000       83.388      1.0        1
     180.000       83.566      1.0        1
     180.000       83.736      1.0        1
     180.000       83.898      1.0        1
     180.000       84.052      1.0        1
     180.000       84.198      1.0        1
     180.000       84.335      1.0        1
     180.000       84.464      1.0        1
     180.000       84.583      1.0        1
     180.000       84.694      1.0        1
     180.000       84.796      1.0        1
     180.000       84.888      1.0        1
     180.000       84.970      1.0        1
     180.000       85.043      1.0        1
     180.000       85.105      1.0        1
     180.000       85.158      1.0        1
     180.000       85.200      1.0        1
     180.000       85.232      1.0        1
     180.000       85.253      1.0        1
     180.000       85.264      1.0        1
     180.000       85.263      1.0        1
     180.000       85.251      1.0        1
     180.000       85.228      1.0        1
     180.000       85.193      1.0        1
     180.000       85.146      1.0        1
     180.000       85.088      1.0        1
     180.000       85.017      1.0        1
     180.000       84.934      1.0        1
     180.000       84.839      1.0        1
     180.000       84.730      1.0        1
     180.000       84.609      1.0        1
     180.000       84.475      1.0        1
     180.000       84.328      1.0        1
     180.000       84.167      1.0        1
     180.000       83.993      1.0        1
     180.000       83.805      1.0        1
     180.000       83.603      1.0        1
     180.000       83.387      1.0        1
     180.000       83.157      1.0        1
     180.000       82.912      1.0        1
     180.000       82.653      1.0        1
     180.000       82.379      1.0        1
     180.000       82.090      1.0        1
     180.000       81.786      1.0        1
     180.000       81.467      1.0        1
     180.000       81.132      1.0        1
     180.000       80.782      1.0        1
     180.000       80.416      1.0        1
     180.000       80.034      1.0        1
     180.000       79.636      1.0        1
     180.000       79.222      1.0        1
     180.000       78.792      1.0        1
     180.000       78.345      1.0        1
     180.000       77.882      1.0        1
     180.000       77.402      1.0        1
     180.000       76.905      1.0        1
     180.000       76.391      1.0        1
     180.000       75.860      1.0        1
     180.000       75.311      1.0        1
     180.000       74.746      1.0        1
     180.000       74.163      1.0        1
     180.000       73.562      1.0        1
     180.000       72.944      1.0        1
     180.000       72.308      1.0        1
     180.000       71.654      1.0        1
     180.000       70.982      1.0        1
     180.000       70.292      1.0        1
     180.000       69.584      1.0        1
     180.000       68.858      1.0        1
     180.000       68.113      1.0        1
     180.000       67.350      1.0        1
     180.000       66.569      1.0        1
     180.000       65.769      1.0        1
     180.000       64.951      1.0        1
     180.000       64.114      1.0        1
     180.000       63.258      1.0        1
     180.000       62.384      1.0        1
     180.000       61.491      1.0        1
     180.000       60.579      1.0        1
     180.000       59.648      1.0        1
     180.000       58.699      1.0        1
     180.000       57.730      1.0        1
     180.000       56.743      1.0        1
     180.000       55.737      1.0        1
     180.000       54.713      1.0        1
     180.000       53.669      1.0        1
     180.000       52.607      1.0        1
     180.000       51.525      1.0        1
     180.000       50.425      1.0        1
     180.000       49.307      1.0        1
     180.000       48.169      1.0        1
     180.000       47.013      1.0        1
     180.000       45.838      1.0        1
     180.000       44.645      1.0        1
     180.000       43.433      1.0        1
     180.000       42.202      1.0        1
     180.000       40.953      1.0        1
     180.000       39.686      1.0        1
     180.000       38.401      1.0        1
     180.000       37.097      1.0        1
     180.000       35.776      1.0        1
     180.000       34.436      1.0        1
     180.000       33.078      1.0        1
     180.000       31.703      1.0        1
     180.000       30.310      1.0        1
     180.000       28.900      1.0        1
     180.000       27.472      1.0        1
     180.000       26.026      1.0        1
     180.000       24.564      1.0        1
     180.000       23.085      1.0        1
     180.000       21.588      1.0        1
     180.000       20.075      1.0        1
     180.000       18.546      1.0        1
     180.000       17.000      1.0        1
     180.000       15.438      1.0        1
     180.000       13.859      1.0        1
     180.000       12.265      1.0        1
     180.000       10.655      1.0        1
     180.000        9.030      1.0        1
     180.000        7.389      1.0        1
     180.000        5.733      1.0        1
     180.000        4.062      1.0        1
     180.000        2.376      1.0        1
     180.000        0.675      1.0        1
       0.000        0.000      1.0        0
       0.000        0.768      1.0        1
       0.000        2.511      1.0        1
       0.000        4.268      1.0        1
       0.000        6.038      1.0        1
       0.000        7.821      1.0        1
       0.000        9.618      1.0        1
       0.000       11.427      1.0        1
       0.000       13.249      1.0        1
       0.000       15.083      1.0        1
       0.000       16.929      1.0        1
       0.000       18.788      1.0        1
       0.000       20.657      1.0        1
       0.000       22.539      1.0        1
       0.000       24.431      1.0        1
       0.000       26.334      1.0        1
       0.000       28.248      1.0        1
       0.000       30.172      1.0        1
       0.000       32.107      1.0        1
       0.000       34.051      1.0        1
       0.000       36.005      1.0        1
       0.000       37.968      1.0        1
       0.000       39.940      1.0        1
       0.000       41.921      1.0        1
       0.000       43.911      1.0        1
       0.000       45.909      1.0        1
       0.000       47.915      1.0        1
       0.000       49.929      1.0        1
       0.000       51.950      1.0        1
       0.000       53.979      1.0        1
       0.000       56.014      1.0        1
       0.000       58.056      1.0        1
       0.000       60.105      1.0        1
       0.000       62.160      1.0        1
       0.000       64.221      1.0        1
       0.000       66.287      1.0        1
       0.000       68.359      1.0        1
       0.000       70.436      1.0        1
       0.000       72.517      1.0        1
       0.000       74.604      1.0        1
       0.000       76.694      1.0        1
       0.000       78.789      1.0        1
       0.000       80.888      1.0        1
       0.000       82.990      1.0        1
       0.000       85.095      1.0        1
       0.000       87.204      1.0        1
       0.000       89.315      1.0        1
       0.000       91.429      1.0        1
       0.000       93.545      1.0        1
       0.000       95.663      1.0        1
       0.000       97.783      1.0        1
       0.000       99.904      1.0        1
       0.000      102.027      1.0        1
       0.000      104.151      1.0        1
       0.000      106.275      1.0        1
       0.000      108.400      1.0        1
       0.000      110.526      1.0        1
       0.000      112.651      1.0        1
       0.000      114.776      1.0        1
       0.000      116.901      1.0        1
       0.000      119.025      1.0        1
       0.000      121.149      1.0        1
       0.000      123.271      1.0        1
       0.000      125.392      1.0        1
       0.000      127.511      1.0        1
       0.000      129.628      1.0        1
       0.000      131.743      1.0        1
       0.000      133.856      1.0        1
       0.000      135.967      1.0        1
       0.000      138.075      1.0        1
       0.000      140.179      1.0        1
       0.000      142.281      1.0        1
       0.000      144.379      1.0        1
       0.000      146.474      1.0        1
       0.000      148.565      1.0        1
       0.000      150.651      1.0        1
       0.000      152.733      1.0        1
       0.000      154.811      1.0        1
       0.000      156.884      1.0        1
       0.000      158.952      1.0        1
       0.000      161.015      1.0        1
       0.000      163.073      1.0        1
       0.000      165.124      1.0        1
       0.000      167.170      1.0        1
       0.000      169.210      1.0        1
       0.000      171.244      1.0        1
       0.000      173.271      1.0        1
       0.000      175.291      1.0        1
       0.000      177.304      1.0        1
       0.000      179.310      1.0        1
       0.000      181.309      1.0        1
       0.000      183.300      1.0        1
       0.000      185.282      1.0        1
       0.000      187.257      1.0        1
       0.000      189.224      1.0        1
       0.000      191.182      1.0        1
       0.000      193.131      1.0        1
       0.000      195.071      1.0        1
       0.000      197.001      1.0        1
       0.000      198.922      1.0        1
       0.000      200.833      1.0        1
       0.000      202.734      1.0        1
       0.000      204.625      1.0        1
       0.000      206.506      1.0        1
       0.000      208.375      1.0        1
       0.000      210.233      1.0        1
       0.000      212.080      1.0        1
       0.000      213.916      1.0        1
       0.000      215.739      1.0        1
       0.000      217.550      1.0        1
       0.000      219.349      1.0        1
       0.000      221.135      1.0        1
       0.000      222.908      1.0        1
       0.000      224.668      1.0        1
       0.000      226.415      1.0        1
       0.000      228.147      1.0        1
       0.000      229.865      1.0        1
       0.000      231.569      1.0        1
       0.000      233.258      1.0        1
       0.000      234.932      1.0        1
       0.000      236.591      1.0        1
       0.000      238.234      1.0        1
       0.000      239.861      1.0        1
       0.000      241.471      1.0        1
       0.000      243.065      1.0        1
       0.000      244.642      1.0        1
       0.000      246.201      1.0        1
       0.000      247.743      1.0        1
       0.000      249.267      1.0        1
       0.000      250.773      1.0        1
       0.000      252.260      1.0        1
       0.000      253.728      1.0        1
       0.000      255.176      1.0        1
       0.000      256.605      1.0        1
       0.000      258.013      1.0        1
       0.000      259.401      1.0        1
       0.000      260.768      1.0        1
       0.000      262.114      1.0        1
       0.000      263.439      1.0        1
       0.000      264.741      1.0        1
       0.000      266.021      1.0        1
       0.000      267.278      1.0        1
       0.000      268.512      1.0        1
       0.000      269.722      1.0        1
       0.000      270.909      1.0        1
       0.000      272.071      1.0        1
       0.000      273.208      1.0        1
       0.000      274.321      1.0        1
       0.000      275.408      1.0        1
       0.000      276.468      1.0        1
       0.000      277.503      1.0        1
       0.000      278.511      1.0        1
       0.000      279.491      1.0        1
       0.000      280.444      1.0        1
       0.000      281.369      1.0        1
       0.000      282.266      1.0        1
       0.000      283.134      1.0        1
       0.000      283.973      1.0        1
       0.000      284.782      1.0        1
       0.000      285.561      1.0        1
       0.000      286.310      1.0        1
       0.000      287.027      1.0        1
       0.000      287.714      1.0        1
       0.000      288.369      1.0        1
       0.000      288.992      1.0        1
       0.000      289.582      1.0        1
       0.000      290.139      1.0        1
       0.000      290.664      1.0        1
       0.000      291.154      1.0        1
       0.000      291.611      1.0        1
       0.000      292.033      1.0        1
       0.000      292.420      1.0        1
       0.000      292.772      1.0        1
       0.000      293.088      1.0        1
       0.000      293.368      1.0        1
       0.000      293.612      1.0        1
       0.000      293.820      1.0        1
       0.000      293.990      1.0        1
       0.000      294.122      1.0        1
       0.000      294.217      1.0        1
       0.000      294.274      1.0        1
       0.000      294.292      1.0        1
       0.000      294.271      1.0        1
       0.000      294.211      1.0        1
       0.000      294.111      1.0        1
       0.000      293.972      1.0        1
       0.000      293.792      1.0        1
       0.000      293.572      1.0        1
       0.000      293.311      1.0        1
       0.000      293.008      1.0        1
       0.000      292.665      1.0        1
       0.000      292.280      1.0        1
       0.000      291.852      1.0        1
       0.000      291.383      1.0        1
       0.000      290.871      1.0        1
       0.000      290.316      1.0        1
       0.000      289.718      1.0        1
       0.000      289.077      1.0        1
       0.000      288.393      1.0        1
       0.000      287.665      1.0        1
       0.000      286.892      1.0        1
       0.000      286.076      1.0        1
       0.000      285.216      1.0        1
       0.000      284.310      1.0        1
       0.000      283.361      1.0        1
       0.000      282.366      1.0        1
       0.000      281.326      1.0        1
       0.000      280.241      1.0        1
       0.000      279.111      1.0        1
       0.000      277.935      1.0        1
       0.000      276.713      1.0        1
       0.000      275.446      1.0        1
       0.000      274.133      1.0        1
       0.000      272.774      1.0        1
       0.000      271.369      1.0        1
       0.000      269.918      1.0        1
       0.000      268.421      1.0        1
       0.000      266.877      1.0        1
       0.000      265.287      1.0        1
       0.000      263.651      1.0        1
       0.000      261.968      1.0        1
       0.000      260.239      1.0        1
       0.000      258.464      1.0        1
       0.000      256.641      1.0        1
       0.000      254.773      1.0        1
       0.000      252.857      1.0        1
       0.000      250.896      1.0        1
       0.000      248.888      1.0        1
       0.000      246.833      1.0        1
       0.000      244.732      1.0        1
       0.000      242.584      1.0        1
       0.000      240.390      1.0        1
       0.000      238.150      1.0        1
       0.000      235.864      1.0        1
       0.000      233.531      1.0        1
       0.000      231.152      1.0        1
       0.000      228.727      1.0        1
       0.000      226.256      1.0        1
       0.000      223.740      1.0        1
       0.000      221.177      1.0        1
       0.000      218.569      1.0        1
       0.000      215.915      1.0        1
       0.000      213.216      1.0        1
       0.000      210.471      1.0        1
       0.000      207.681      1.0        1
       0.000      204.846      1.0        1
       0.000      201.966      1.0        1
       0.000      199.041      1.0        1
       0.000      196.072      1.0        1
       0.000      193.057      1.0        1
       0.000      189.999      1.0        1
       0.000      186.896      1.0        1
       0.000      183.748      1.0        1
       0.000      180.557      1.0        1
       0.000      177.322      1.0        1
       0.000      174.043      1.0        1
       0.000      170.720      1.0        1
       0.000      167.354      1.0        1
       0.000      163.945      1.0        1
       0.000      160.493      1.0        1
       0.000      156.997      1.0        1
       0.000      153.459      1.0        1
       0.000      149.878      1.0        1
       0.000      146.255      1.0        1
       0.000      142.589      1.0        1
       0.000      138.882      1.0        1
       0.000      135.132      1.0        1
       0.000      131.340      1.0        1
       0.000      127.507      1.0        1
       0.000      123.632      1.0        1
       0.000      119.716      1.0        1
       0.000      115.758      1.0        1
       0.000      111.760      1.0        1
       0.000      107.720      1.0        1
       0.000      103.640      1.0        1
       0.000       99.519      1.0        1
       0.000       95.358      1.0        1
       0.000       91.157      1.0        1
       0.000       86.915      1.0        1
       0.000       82.633      1.0        1
       0.000       78.312      1.0        1
       0.000       73.950      1.0        1
       0.000       69.550      1.0        1
       0.000       65.109      1.0        1
       0.000       60.630      1.0        1
       0.000       56.111      1.0        1
       0.000       51.553      1.0        1
       0.000       46.957      1.0        1
       0.000       42.322      1.0        1
       0.000       37.648      1.0        1
       0.000       32.936      1.0        1
       0.000       28.185      1.0        1
       0.000       23.396      1.0        1
       0.000       18.570      1.0        1
       0.000       13.705      1.0        1
       0.000        8.803      1.0        1
       0.000        3.863      1.0        1
     180.000        0.000      1.0        0
     180.000        4.130      1.0        1
     180.000        9.182      1.0        1
     180.000       14.271      1.0        1
     180.000       19.397      1.0        1
     180.000       24.560      1.0        1
     180.000       29.760      1.0        1
     180.000       34.996      1.0        1
     180.000       40.268      1.0        1
     180.000       45.577      1.0        1
     180.000       50.921      1.0        1
     180.000       56.302      1.0        1
     180.000       61.718      1.0        1
     180.000       67.170      1.0        1
     180.000       72.657      1.0        1
     180.000       78.179      1.0        1
     180.000       83.736      1.0        1
     180.000       89.328      1.0        1
     180.000       94.954      1.0        1
     180.000      100.615      1.0        1
     180.000      106.310      1.0        1
     180.000      112.039      1.0        1
     180.000      117.802      1.0        1
     180.000      123.598      1.0        1
     180.000      129.428      1.0        1
     180.000      135.290      1.0        1
     180.000      141.185      1.0        1
     180.000      147.113      1.0        1
     180.000      153.072      1.0        1
     180.000      159.064      1.0        1
     180.000      165.086      1.0        1
     180.000      171.140      1.0        1
     180.000      177.225      1.0        1
     180.000      183.340      1.0        1
     180.000      189.486      1.0        1
     180.000      195.661      1.0        1
     180.000      201.865      1.0        1
     180.000      208.098      1.0        1
     180.000      214.360      1.0        1
     180.000      220.650      1.0        1
     180.000      226.967      1.0        1
     180.000      233.311      1.0        1
     180.000      239.682      1.0        1
     180.000      246.079      1.0        1
     180.000      252.502      1.0        1
     180.000      258.949      1.0        1
     180.000      265.421      1.0        1
     180.000      271.916      1.0        1
     180.000      278.435      1.0        1
     180.000      284.976      1.0        1
     180.000      291.539      1.0        1
     180.000      298.123      1.0        1
     180.000      304.727      1.0        1
     180.000      311.352      1.0        1
     180.000      317.995      1.0        1
     180.000      324.657      1.0        1
     180.000      331.336      1.0        1
     180.000      338.031      1.0        1
     180.000      344.743      1.0        1
     180.000      351.469      1.0        1
     180.000      358.210      1.0        1
     180.000      364.963      1.0        1
     180.000      371.729      1.0        1
     180.000      378.506      1.0        1
     180.000      385.293      1.0        1
     180.000      392.090      1.0        1
     180.000      398.895      1.0        1
     180.000      405.706      1.0        1
     180.000      412.525      1.0        1
     180.000      419.348      1.0        1
     180.000      426.175      1.0        1
     180.000      433.004      1.0        1
     180.000      439.835      1.0        1
     180.000      446.667      1.0        1
     180.000      453.498      1.0        1
     180.000      460.326      1.0        1
     180.000      467.151      1.0        1
     180.000      473.972      1.0        1
     180.000      480.786      1.0        1
     180.000      487.594      1.0        1
     180.000      494.392      1.0        1
     180.000      501.181      1.0        1
     180.000      507.958      1.0        1
     180.000      514.722      1.0        1
     180.000      521.471      1.0        1
     180.000      528.205      1.0        1
     180.000      534.922      1.0        1
     180.000      541.619      1.0        1
     180.000      548.297      1.0        1
     180.000      554.952      1.0        1
     180.000      561.585      1.0        1
     180.000      568.192      1.0        1
     180.000      574.772      1.0        1
     180.000      581.324      1.0        1
     180.000      587.847      1.0        1
     180.000      594.338      1.0        1
     180.000      600.796      1.0        1
     180.000      607.219      1.0        1
     180.000      613.605      1.0        1
     180.000      619.953      1.0        1
     180.000      626.262      1.0        1
     180.000      632.529      1.0        1
     180.000      638.752      1.0        1
     180.000      644.930      1.0        1
     180.000      651.062      1.0        1
     180.000      657.145      1.0        1
     180.000      663.178      1.0        1
     180.000      669.158      1.0        1
     180.000      675.085      1.0        1
     180.000      680.957      1.0        1
     180.000      686.771      1.0        1
     180.000      692.525      1.0        1
     180.000      698.219      1.0        1
     180.000      703.851      1.0        1
     180.000      709.418      1.0        1
     180.000      714.919      1.0        1
     180.000      720.351      1.0        1
     180.000      725.715      1.0        1
     180.000      731.006      1.0        1
     180.000      736.225      1.0        1
     180.000      741.369      1.0        1
     180.000      746.436      1.0        1
     180.000      751.425      1.0        1
     180.000      756.334      1.0        1
     180.000      761.161      1.0        1
     180.000      765.905      1.0        1
     180.000      770.564      1.0        1
     180.000      775.136      1.0        1
     180.000      779.620      1.0        1
     180.000      784.014      1.0        1
     180.000      788.317      1.0        1
     180.000      792.527      1.0        1
     180.000      796.642      1.0        1
     180.000      800.661      1.0        1
     180.000      804.582      1.0        1
     180.000      808.404      1.0        1
     180.000      812.126      1.0        1
     180.000      815.746      1.0        1
     180.000      819.263      1.0        1
     180.000      822.675      1.0        1
     180.000      825.981      1.0        1
     180.000      829.179      1.0        1
     180.000      832.269      1.0        1
     180.000      835.249      1.0        1
     180.000      838.118      1.0        1
     180.000      840.874      1.0        1
     180.000      843.517      1.0        1
     180.000      846.046      1.0        1
     180.000      848.459      1.0        1
     180.000      850.755      1.0        1
     180.000      852.934      1.0        1
     180.000      854.994      1.0        1
     180.000      856.934      1.0        1
     180.000      858.754      1.0        1
     180.000      860.453      1.0        1
     180.000      862.029      1.0        1
     180.000      863.483      1.0        1
     180.000      864.813      1.0        1
     180.000      866.018      1.0        1
     180.000      867.099      1.0        1
     180.000      868.054      1.0        1
     180.000      868.883      1.0        1
     180.000      869.585      1.0        1
     180.000      870.161      1.0        1
     180.000      870.608      1.0        1
     180.000      870.928      1.0        1
     180.000      871.119      1.0        1
     180.000      871.182      1.0        1
     180.000      871.116      1.0        1
     180.000      870.921      1.0        1
     180.000      870.597      1.0        1
     180.000      870.143      1.0        1
     180.000      869.560      1.0        1
     180.000      868.847      1.0        1
     180.000      868.005      1.0        1
     180.000      867.034      1.0        1
     180.000      865.933      1.0        1
     180.000      864.703      1.0        1
     180.000      863.344      1.0        1
     180.000      861.856      1.0        1
     180.000      860.240      1.0        1
     180.000      858.496      1.0        1
     180.000      856.624      1.0        1
     180.000      854.624      1.0        1
     180.000      852.498      1.0        1
     180.000      850.245      1.0        1
     180.000      847.866      1.0        1
     180.000      845.362      1.0        1
     180.000      842.733      1.0        1
     180.000      839.979      1.0        1
     180.000      837.103      1.0        1
     180.000      834.103      1.0        1
     180.000      830.981      1.0        1
     180.000      827.739      1.0        1
     180.000      824.375      1.0        1
     180.000      820.893      1.0        1
     180.000      817.291      1.0        1
     180.000      813.572      1.0        1
     180.000      809.736      1.0        1
     180.000      805.784      1.0        1
     180.000      801.718      1.0        1
     180.000      797.537      1.0        1
     180.000      793.244      1.0        1
     180.000      788.839      1.0        1
     180.000      784.324      1.0        1
     180.000      779.700      1.0        1
     180.000      774.968      1.0        1
     180.000      770.128      1.0        1
     180.000      765.183      1.0        1
     180.000      760.133      1.0        1
     180.000      754.981      1.0        1
     180.000      749.726      1.0        1
     180.000      744.371      1.0        1
     180.000      738.916      1.0        1
     180.000      733.363      1.0        1
     180.000      727.714      1.0        1
     180.000      721.970      1.0        1
     180.000      716.131      1.0        1
     180.000      710.200      1.0        1
     180.000      704.178      1.0        1
     180.000      698.067      1.0        1
     180.000      691.867      1.0        1
     180.000      685.580      1.0        1
     180.000      679.208      1.0        1
     180.000      672.752      1.0        1
     180.000      666.213      1.0        1
     180.000      659.593      1.0        1
     180.000      652.893      1.0        1
     180.000      646.115      1.0        1
     180.000      639.260      1.0        1
     180.000      632.330      1.0        1
     180.000      625.326      1.0        1
     180.000      618.249      1.0        1
     180.000      611.102      1.0        1
     180.000      603.884      1.0        1
     180.000      596.598      1.0        1
     180.000      589.246      1.0        1
     180.000      581.828      1.0        1
     180.000      574.346      1.0        1
     180.000      566.801      1.0        1
     180.000      559.195      1.0        1
     180.000      551.529      1.0        1
     180.000      543.805      1.0        1
     180.000      536.023      1.0        1
     180.000      528.185      1.0        1
     180.000      520.292      1.0        1
     180.000      512.347      1.0        1
     180.000      504.349      1.0        1
     180.000      496.300      1.0        1
     180.000      488.201      1.0        1
     180.000      480.055      1.0        1
     180.000      471.861      1.0        1
     180.000      463.621      1.0        1
     180.000      455.336      1.0        1
     180.000      447.008      1.0        1
     180.000      438.637      1.0        1
     180.000      430.225      1.0        1
     180.000      421.772      1.0        1
     180.000      413.280      1.0        1
     180.000      404.750      1.0        1
     180.000      396.183      1.0        1
     180.000      387.580      1.0        1
     180.000      378.941      1.0        1
     180.000      370.268      1.0        1
     180.000      361.562      1.0        1
     180.000      352.823      1.0        1
     180.000      344.053      1.0        1
     180.000      335.252      1.0        1
     180.000      326.421      1.0        1
     180.000      317.562      1.0        1
     180.000      308.674      1.0        1
     180.000      299.759      1.0        1
     180.000      290.818      1.0        1
     180.000      281.850      1.0        1
     180.000      272.858      1.0        1
     180.000      263.841      1.0        1
     180.000      254.800      1.0        1
     180.000      245.737      1.0        1
     180.000      236.651      1.0        1
     180.000      227.543      1.0        1
     180.000      218.414      1.0        1
     180.000      209.265      1.0        1
     180.000      200.095      1.0        1
     180.000      190.907      1.0        1
     180.000      181.699      1.0        1
     180.000      172.473      1.0        1
     180.000      163.229      1.0        1
     180.000      153.968      1.0        1
     180.000      144.690      1.0        1
     180.000      135.396      1.0        1
     180.000      126.086      1.0        1
     180.000      116.760      1.0        1
     180.000      107.420      1.0        1
     180.000       98.065      1.0        1
     180.000       88.696      1.0        1
     180.000       79.313      1.0        1
     180.000       69.917      1.0        1
     180.000       60.508      1.0        1
     180.000       51.086      1.0        1
     180.000       41.653      1.0        1
     180.000       32.207      1.0        1
     180.000       22.751      1.0        1
     180.000       13.283      1.0        1
     180.000        3.805      1.0        1
       0.000        3.683      1.0        1
       0.000       13.181      1.0        1
       0.000       22.688      1.0        1
       0.000       32.204      1.0        1
       0.000       41.729      1.0        1
       0.000       51.262      1.0        1
       0.000       60.803      1.0        1
       0.000       70.351      1.0        1
       0.000       79.906      1.0        1
       0.000       89.468      1.0        1
       0.000       99.035      1.0        1
       0.000      108.609      1.0        1
       0.000      118.187      1.0        1
       0.000      127.770      1.0        1
       0.000      137.358      1.0        1
       0.000      146.949      1.0        1
       0.000      156.544      1.0        1
       0.000      166.141      1.0        1
       0.000      175.741      1.0        1
       0.000      185.342      1.0        1
       0.000      194.944      1.0        1
       0.000      204.547      1.0        1
       0.000      214.149      1.0        1
       0.000      223.751      1.0        1
       0.000      233.352      1.0        1
       0.000      242.950      1.0        1
       0.000      252.546      1.0        1
       0.000      262.138      1.0        1
       0.000      271.727      1.0        1
       0.000      281.310      1.0        1
       0.000      290.888      1.0        1
       0.000      300.459      1.0        1
       0.000      310.023      1.0        1
       0.000      319.579      1.0        1
       0.000      329.125      1.0        1
       0.000      338.662      1.0        1
       0.000      348.189      1.0        1
       0.000      357.703      1.0        1
       0.000      367.205      1.0        1
       0.000      376.693      1.0        1
       0.000      386.166      1.0        1
       0.000      395.624      1.0        1
       0.000      405.065      1.0        1
       0.000      414.488      1.0        1
       0.000      423.891      1.0        1
       0.000      433.275      1.0        1
       0.000      442.637      1.0        1
       0.000      451.977      1.0        1
       0.000      461.293      1.0        1
       0.000      470.584      1.0        1
       0.000      479.849      1.0        1
       0.000      489.086      1.0        1
       0.000      498.295      1.0        1
       0.000      507.473      1.0        1
       0.000      516.619      1.0        1
       0.000      525.733      1.0        1
       0.000      534.812      1.0        1
       0.000      543.855      1.0        1
       0.000      552.861      1.0        1
       0.000      561.828      1.0        1
       0.000      570.754      1.0        1
       0.000      579.639      1.0        1
       0.000      588.481      1.0        1
       0.000      597.278      1.0        1
       0.000      606.028      1.0        1
       0.000      614.730      1.0        1
       0.000      623.382      1.0        1
       0.000      631.983      1.0        1
       0.000      640.531      1.0        1
       0.000      649.025      1.0        1
       0.000      657.462      1.0        1
       0.000      665.841      1.0        1
       0.000      674.160      1.0        1
       0.000      682.418      1.0        1
       0.000      690.613      1.0        1
       0.000      698.744      1.0        1
       0.000      706.807      1.0        1
       0.000      714.803      1.0        1
       0.000      722.728      1.0        1
       0.000      730.582      1.0        1
       0.000      738.363      1.0        1
       0.000      746.068      1.0        1
       0.000      753.696      1.0        1
       0.000      761.245      1.0        1
       0.000      768.714      1.0        1
       0.000      776.101      1.0        1
       0.000      783.404      1.0        1
       0.000      790.621      1.0        1
       0.000      797.751      1.0        1
       0.000      804.792      1.0        1
       0.000      811.742      1.0        1
       0.000      818.600      1.0        1
       0.000      825.364      1.0        1
       0.000      832.031      1.0        1
       0.000      838.602      1.0        1
       0.000      845.073      1.0        1
       0.000      851.443      1.0        1
       0.000      857.712      1.0        1
       0.000      863.876      1.0        1
       0.000      869.935      1.0        1
       0.000      875.886      1.0        1
       0.000      881.730      1.0        1
       0.000      887.463      1.0        1
       0.000      893.085      1.0        1
       0.000      898.594      1.0        1
       0.000      903.988      1.0        1
       0.000      909.267      1.0        1
       0.000      914.428      1.0        1
       0.000      919.472      1.0        1
       0.000      924.395      1.0        1
       0.000      929.198      1.0        1
       0.000      933.878      1.0        1
       0.000      938.435      1.0        1
       0.000      942.868      1.0        1
       0.000      947.175      1.0        1
       0.000      951.355      1.0        1
       0.000      955.407      1.0        1
       0.000      959.331      1.0        1
       0.000      963.125      1.0        1
       0.000      966.788      1.0        1
       0.000      970.320      1.0        1
       0.000      973.719      1.0        1
       0.000      976.985      1.0        1
       0.000      980.117      1.0        1
       0.000      983.115      1.0        1
       0.000      985.978      1.0        1
       0.000      988.704      1.0        1
       0.000      991.294      1.0        1
       0.000      993.748      1.0        1
       0.000      996.064      1.0        1
       0.000      998.242      1.0        1
       0.000     1000.282      1.0        1
       0.000     1002.183      1.0        1
       0.000     1003.946      1.0        1
       0.000     1005.569      1.0        1
       0.000     1007.054      1.0        1
       0.000     1008.399      1.0        1
       0.000     1009.606      1.0        1
       0.000     1010.672      1.0        1
       0.000     1011.600      1.0        1
       0.000     1012.388      1.0        1
       0.000     1013.037      1.0        1
       0.000     1013.548      1.0        1
       0.000     1013.919      1.0        1
       0.000     1014.153      1.0        1
       0.000     1014.248      1.0        1
       0.000     1014.206      1.0        1
       0.000     1014.027      1.0        1
       0.000     1013.711      1.0        1
       0.000     1013.258      1.0        1
       0.000     1012.671      1.0        1
       0.000     1011.948      1.0        1
       0.000     1011.092      1.0        1
       0.000     1010.102      1.0        1
       0.000     1008.979      1.0        1
       0.000     1007.725      1.0        1
       0.000     1006.339      1.0        1
       0.000     1004.824      1.0        1
       0.000     1003.179      1.0        1
       0.000     1001.407      1.0        1
       0.000      999.508      1.0        1
       0.000      997.483      1.0        1
       0.000      995.333      1.0        1
       0.000      993.060      1.0        1
       0.000      990.665      1.0        1
       0.000      988.148      1.0        1
       0.000      985.513      1.0        1
       0.000      982.759      1.0        1
       0.000      979.888      1.0        1
       0.000      976.901      1.0        1
       0.000      973.801      1.0        1
       0.000      970.589      1.0        1
       0.000      967.265      1.0        1
       0.000      963.832      1.0        1
       0.000      960.292      1.0        1
       0.000      956.645      1.0        1
       0.000      952.894      1.0        1
       0.000      949.041      1.0        1
       0.000      945.086      1.0        1
       0.000      941.032      1.0        1
       0.000      936.881      1.0        1
       0.000      932.634      1.0        1
       0.000      928.294      1.0        1
       0.000      923.861      1.0        1
       0.000      919.339      1.0        1
       0.000      914.728      1.0        1
       0.000      910.031      1.0        1
       0.000      905.250      1.0        1
       0.000      900.386      1.0        1
       0.000      895.442      1.0        1
       0.000      890.419      1.0        1
       0.000      885.320      1.0        1
       0.000      880.147      1.0        1
       0.000      874.901      1.0        1
       0.000      869.585      1.0        1
       0.000      864.200      1.0        1
       0.000      858.749      1.0        1
       0.000      853.233      1.0        1
       0.000      847.656      1.0        1
       0.000      842.018      1.0        1
       0.000      836.322      1.0        1
       0.000      830.569      1.0        1
       0.000      824.763      1.0        1
       0.000      818.904      1.0        1
       0.000      812.996      1.0        1
       0.000      807.039      1.0        1
       0.000      801.037      1.0        1
       0.000      794.991      1.0        1
       0.000      788.903      1.0        1
       0.000      782.775      1.0        1
       0.000      776.609      1.0        1
       0.000      770.407      1.0        1
       0.000      764.172      1.0        1
       0.000      757.904      1.0        1
       0.000      751.607      1.0        1
       0.000      745.281      1.0        1
       0.000      738.930      1.0        1
       0.000      732.554      1.0        1
       0.000      726.157      1.0        1
       0.000      719.738      1.0        1
       0.000      713.302      1.0        1
       0.000      706.848      1.0        1
       0.000      700.380      1.0        1
       0.000      693.899      1.0        1
       0.000      687.406      1.0        1
       0.000      680.904      1.0        1
       0.000      674.394      1.0        1
       0.000      667.878      1.0        1
       0.000      661.358      1.0        1
       0.000      654.835      1.0        1
       0.000      648.311      1.0        1
       0.000      641.787      1.0        1
       0.000      635.266      1.0        1
       0.000      628.748      1.0        1
       0.000      622.236      1.0        1
       0.000      615.730      1.0        1
       0.000      609.232      1.0        1
       0.000      602.744      1.0        1
       0.000      596.267      1.0        1
       0.000      589.802      1.0        1
       0.000      583.351      1.0        1
       0.000      576.915      1.0        1
       0.000      570.496      1.0        1
       0.000      564.094      1.0        1
       0.000      557.711      1.0        1
       0.000      551.348      1.0        1
       0.000      545.007      1.0        1
       0.000      538.688      1.0        1
       0.000      532.392      1.0        1
       0.000      526.121      1.0        1
       0.000      519.875      1.0        1
       0.000      513.656      1.0        1
       0.000      507.465      1.0        1
       0.000      501.303      1.0        1
       0.000      495.169      1.0        1
       0.000      489.067      1.0        1
       0.000      482.995      1.0        1
       0.000      476.956      1.0        1
       0.000      470.949      1.0        1
       0.000      464.976      1.0        1
       0.000      459.038      1.0        1
       0.000      453.135      1.0        1
       0.000      447.267      1.0        1
       0.000      441.436      1.0        1
       0.000      435.642      1.0        1
       0.000      429.885      1.0        1
       0.000      424.167      1.0        1
       0.000      418.487      1.0        1
       0.000      412.847      1.0        1
       0.000      407.246      1.0        1
       0.000      401.686      1.0        1
       0.000      396.166      1.0        1
       0.000      390.687      1.0        1
       0.000      385.250      1.0        1
       0.000      379.854      1.0        1
       0.000      374.500      1.0        1
       0.000      369.189      1.0        1
       0.000      363.920      1.0        1
       0.000      358.694      1.0        1
       0.000      353.511      1.0        1
       0.000      348.372      1.0        1
       0.000      343.275      1.0        1
       0.000      338.223      1.0        1
       0.000      333.214      1.0        1
       0.000      328.249      1.0        1
       0.000      323.328      1.0        1
       0.000      318.451      1.0        1
       0.000      313.618      1.0        1
       0.000      308.830      1.0        1
       0.000      304.085      1.0        1
       0.000      299.385      1.0        1
       0.000      294.729      1.0        1
       0.000      290.117      1.0        1
       0.000      285.549      1.0        1
       0.000      281.025      1.0        1
       0.000      276.545      1.0        1
       0.000      272.109      1.0        1
       0.000      267.716      1.0        1
       0.000      263.368      1.0        1
       0.000      259.062      1.0        1
       0.000      254.800      1.0        1
       0.000      250.582      1.0        1
       0.000      246.406      1.0        1
       0.000      242.273      1.0        1
       0.000      238.183      1.0        1
       0.000      234.136      1.0        1
       0.000      230.130      1.0        1
       0.000      226.167      1.0        1
       0.000      222.246      1.0        1
       0.000      218.366      1.0        1
       0.000      214.527      1.0        1
       0.000      210.730      1.0        1
       0.000      206.974      1.0        1
       0.000      203.258      1.0        1
       0.000      199.582      1.0        1
       0.000      195.947      1.0        1
       0.000      192.352      1.0        1
       0.000      188.796      1.0        1
       0.000      185.279      1.0        1
       0.000      181.801      1.0        1
       0.000      178.362      1.0        1
       0.000      174.962      1.0        1
       0.000      171.599      1.0        1
       0.000      168.275      1.0        1
       0.000      164.987      1.0        1
       0.000      161.737      1.0        1
       0.000      158.524      1.0        1
       0.000      155.348      1.0        1
       0.000      152.208      1.0        1
       0.000      149.104      1.0        1
       0.000      146.035      1.0        1
       0.000      143.002      1.0        1
       0.000      140.004      1.0        1
       0.000      137.041      1.0        1
       0.000      134.112      1.0        1
       0.000      131.218      1.0        1
       0.000      128.357      1.0        1
       0.000      125.530      1.0        1
       0.000      122.736      1.0        1
       0.000      119.975      1.0        1
       0.000      117.247      1.0        1
       0.000      114.551      1.0        1
       0.000      111.887      1.0        1
       0.000      109.255      1.0        1
       0.000      106.655      1.0        1
       0.000      104.085      1.0        1
       0.000      101.547      1.0        1
       0.000       99.039      1.0        1
       0.000       96.561      1.0        1
       0.000       94.114      1.0        1
       0.000       91.696      1.0        1
       0.000       89.308      1.0        1
       0.000       86.949      1.0        1
       0.000       84.619      1.0        1
       0.000       82.318      1.0        1
       0.000       80.045      1.0        1
       0.000       77.800      1.0        1
       0.000       75.583      1.0        1
       0.000       73.394      1.0        1
       0.000       71.232      1.0        1
       0.000       69.097      1.0        1
       0.000       66.989      1.0        1
       0.000       64.907      1.0        1
       0.000       62.852      1.0        1
       0.000       60.823      1.0        1
       0.000       58.820      1.0        1
       0.000       56.842      1.0        1
       0.000       54.890      1.0        1
       0.000       52.963      1.0        1
       0.000       51.061      1.0        1
       0.000       49.183      1.0        1
       0.000       47.330      1.0        1
       0.000       45.501      1.0        1
       0.000       43.696      1.0        1
       0.000       41.915      1.0        1
       0.000       40.157      1.0        1
       0.000       38.422      1.0        1
       0.000       36.710      1.0        1
       0.000       35.021      1.0        1
       0.000       33.355      1.0        1
       0.000       31.711      1.0        1
       0.000       30.089      1.0        1
       0.000       28.489      1.0        1
       0.000       26.911      1.0        1
       0.000       25.354      1.0        1
       0.000       23.819      1.0        1
       0.000       22.304      1.0        1
       0.000       20.811      1.0        1
       0.000       19.338      1.0        1
       0.000       17.885      1.0        1
       0.000       16.452      1.0        1
       0.000       15.039      1.0        1
       0.000       13.646      1.0        1
       0.000       12.273      1.0        1
       0.000       10.919      1.0        1
       0.000        9.584      1.0        1
       0.000        8.268      1.0        1
       0.000        6.970      1.0        1
       0.000        5.691      1.0        1
       0.000        4.430      1.0        1
       0.000        3.187      1.0        1
       0.000        1.962      1.0        1
