Bruker BioSpin GmbH: the minispec
DataType=1
DataLimits=0.00062,2.00734,6272
DataUnit=Time/ms,Intensity/%
c:\minispec\wouter\lc_satrec_ldi.app
06.04.2017 16:38:13

0
0
0
0
0
0
0
0
0
0
0.0146492
0.0341814
0.0878949
0.449241
0.947312
1.21588
1.31842
1.25983
5.48367
18.7411
36.1834
48.9184
53.1569
52.5514
51.6773
52.5612
54.7829
56.7215
57.6639
56.8534
54.3044
51.0425
48.5082
47.6781
47.6976
48.6498
49.5093
49.1137
48.3031
47.2142
46.9408
47.4095
46.8089
45.0754
42.5509
40.4951
39.6992
39.831
40.7832
41.3936
41.169
41.1251
41.0225
40.461
40.5
40.2266
38.5761
36.5936
35.6414
35.9539
35.4314
33.8298
32.8873
33.737
34.2546
33.2731
33.1559
34.8601
36.3055
34.821
31.7252
30.5972
31.5494
33.1413
33.4684
31.1783
27.7748
26.7494
27.7504
29.1079
30.4995
30.3042
28.102
25.7483
24.5129
25.3333
26.8421
27.809
28.727
29.562
29.9722
29.2006
26.7689
24.3615
23.1603
23.4582
24.9963
25.8802
26.388
28.0238
29.6987
30.2505
29.8989
29.6304
29.7524
28.5658
26.7982
25.6946
24.7717
24.2248
24.8498
26.6859
27.5892
27.0277
26.6517
26.9349
26.5247
25.0989
24.0246
25.0598
27.0033
28.3217
28.8442
28.8491
28.4682
28.8149
29.5425
29.5083
28.9321
27.6625
25.1672
22.7062
23.0626
24.1516
23.7512
23.59
25.221
26.8861
26.8812
26.6468
26.764
26.3929
25.2112
24.3469
24.3518
23.4777
23.6144
23.3166
22.0128
23.0041
24.1565
25.5481
27.9945
29.0151
28.3998
27.4232
26.4368
24.9524
23.6486
23.0089
22.3351
22.0812
22.8966
24.4201
26.4906
28.0287
27.3841
26.0706
26.5101
27.4525
27.4379
26.2269
24.591
24.4153
24.9915
24.425
22.6915
21.2657
22.1349
23.0187
21.7833
20.4258
21.4317
24.1955
25.3284
25.1282
25.6702
26.6663
25.6897
23.551
23.2384
23.9025
24.1076
23.9025
23.6926
22.8673
23.0724
25.0989
25.2844
24.967
25.7532
26.3587
26.6273
25.4212
24.4592
24.425
24.5276
26.305
27.4476
25.8558
24.3908
24.5617
24.3029
22.5402
21.7345
23.3117
24.1613
24.2102
24.4397
24.1613
23.2531
20.7383
18.6874
19.5078
21.7491
24.2248
25.9192
25.802
23.9709
22.0226
20.6944
19.7226
20.1231
22.2228
24.4055
24.7473
24.215
23.38
22.4913
23.1994
25.2063
26.7884
25.5237
23.0675
22.2667
22.8527
23.9416
24.5666
23.9318
21.8956
21.6856
23.6535
23.4875
22.5353
24.1174
24.8743
25.553
28.3315
29.8843
28.8295
25.2307
22.1739
22.3253
23.3361
24.5178
24.4348
23.9855
24.0441
23.3898
21.9298
20.6309
20.5674
21.9102
23.9367
25.8655
27.2328
26.7445
25.3333
23.6779
22.5157
23.5168
24.8059
26.6468
27.1058
27.3939
28.3852
27.1058
25.4016
24.9182
24.4934
24.7375
24.6155
23.38
22.7453
22.9015
22.7599
22.8478
23.9172
26.0901
26.5882
25.2161
25.9241
27.3744
26.5394
24.3225
23.0041
23.7267
25.9436
27.0277
25.47
22.8869
22.8527
24.3078
23.7756
23.0724
23.756
24.5666
24.0783
22.6085
23.2482
25.3089
27.4232
29.2446
28.8198
27.1156
25.9925
26.2366
27.2474
26.8079
25.9681
26.598
27.7504
28.1899
27.5502
25.0305
21.9005
22.3302
23.6877
23.5558
22.5157
21.671
22.2276
23.2824
23.5314
22.9992
22.2521
22.7062
23.8293
24.1125
24.132
24.4787
24.4446
23.048
22.086
22.1056
22.4913
23.7414
24.6252
24.5764
24.7864
25.0159
24.425
23.634
23.1945
23.1945
23.2726
23.6584
23.5168
22.3741
22.672
24.1565
25.1965
24.8108
23.048
21.6319
20.8653
21.9102
23.5412
23.0626
23.3459
25.1428
25.1477
23.6877
22.8966
22.7111
22.6818
21.92
20.6993
19.791
19.1464
18.6728
18.6142
20.8116
23.3166
23.8684
22.5939
21.1778
21.4952
22.2765
21.5391
21.0264
20.8409
20.1719
20.6846
22.5157
23.6096
23.7609
23.4777
22.8478
23.2775
24.9915
25.7581
24.2785
24.0148
25.6995
25.7337
24.1027
22.838
24.5178
25.221
23.8684
24.2639
24.4983
24.4348
24.4592
24.3957
24.552
23.1603
22.0421
23.3019
24.0197
23.6388
23.1701
22.5353
21.5098
20.7237
21.2706
22.7111
24.7522
25.8411
24.2199
21.085
19.249
18.7656
18.6533
19.7031
21.2169
22.6964
24.1565
23.6877
20.8213
18.4384
18.4189
21.3633
23.1505
22.9699
23.5314
23.8
24.0246
23.9807
22.0323
22.1105
23.4484
22.7843
21.2559
20.9336
21.5294
24.1125
25.9436
25.2258
23.1505
22.0421
22.9552
22.921
21.4512
20.7286
20.792
21.5733
22.3986
21.8468
20.0498
19.6836
21.295
22.2374
22.8673
22.2228
20.9141
20.5625
20.626
20.4746
19.8301
20.5039
20.7481
20.5674
22.3839
23.9611
24.2639
23.3556
21.7393
21.0752
20.3184
19.8838
20.3184
20.167
20.2988
20.2793
21.2217
24.5666
24.9524
21.9737
20.1377
21.0508
22.423
22.0421
21.0948
21.085
20.1963
18.6581
18.9755
21.1436
23.214
23.5558
21.8907
20.499
20.9971
22.1642
22.8136
23.297
22.3204
20.2891
20.0303
20.0596
19.6396
20.8116
22.7013
23.1701
22.5011
21.4512
21.4024
20.9922
19.6885
19.3662
18.4726
18.248
21.129
24.0832
23.7316
21.3536
20.7237
20.5283
19.542
20.4551
21.2462
21.6221
21.9884
20.3037
18.5312
18.7216
19.1709
21.6466
24.0051
23.0187
20.4942
20.6358
21.8565
22.0323
21.5636
20.5283
20.0693
20.9678
22.2276
23.0529
22.9162
23.8684
24.8743
23.7316
22.716
21.1143
20.2549
22.13
22.7843
20.7676
19.3759
20.1572
20.9483
21.6905
22.7404
22.8771
21.4805
19.9473
18.8925
20.1182
23.0236
24.9426
25.0842
23.1457
21.7003
22.2569
22.6378
22.3107
21.7589
21.129
21.5587
22.1251
21.5147
21.3389
22.6427
23.2726
23.4484
22.7794
21.0899
20.5186
21.3731
21.5782
21.2462
21.1729
20.7725
21.2462
21.588
21.295
22.0177
23.7609
23.8195
22.4669
22.3302
22.8429
22.9406
22.8624
22.2081
23.1603
25.5139
26.1439
25.3235
24.8352
24.7034
24.3908
23.7023
23.1945
23.0138
21.9737
20.6309
19.9717
19.4248
20.1621
21.0557
20.4453
20.5821
22.1935
23.0724
23.3898
24.2639
24.6155
24.9817
23.966
21.378
20.9141
21.1729
19.8545
20.1377
20.9922
20.5137
21.0752
22.4425
24.0295
24.0441
21.8565
20.1768
20.5039
21.5147
22.7599
23.8439
24.5178
24.3274
22.9796
21.8761
22.0714
21.9249
20.836
20.0791
19.3222
18.9609
18.873
19.415
20.3428
21.3585
21.7345
21.3975
20.6651
20.3379
20.7969
20.8946
21.0459
22.1495
22.6671
22.0177
21.3975
20.792
21.7345
22.8966
22.3204
22.0323
22.3741
21.6368
20.0645
19.4394
19.7861
18.7802
18.1894
19.8154
20.3867
19.1709
18.5165
19.2295
19.5957
20.2891
21.3389
21.4561
22.3741
23.3996
24.0979
24.425
23.0529
21.0118
18.956
17.0028
17.2567
19.8789
22.5548
22.2325
20.2988
20.1621
20.7139
22.9992
25.0501
23.4777
21.1387
21.1534
21.0752
19.8398
20.5137
21.2852
20.167
18.2235
16.8856
16.7489
17.7011
20.377
22.3204
21.0167
19.3418
19.8789
18.7607
16.954
17.5448
19.1709
21.1924
20.7725
19.6689
19.4638
19.6689
20.7188
21.4464
21.5636
21.129
20.6944
20.7432
21.4464
21.5001
20.6504
20.0596
20.333
20.6651
21.8712
21.9933
21.3487
22.2032
22.2081
20.9874
20.8604
20.7481
20.6748
20.6895
20.7041
19.9717
18.7558
19.5713
21.0313
20.0742
18.0575
18.9658
20.3672
21.4219
21.881
21.212
22.379
23.7316
22.9015
20.4307
19.3125
20.9385
20.9483
20.6797
21.0655
20.3916
20.001
20.4356
19.6689
18.9121
19.2636
19.2148
19.4052
20.0449
21.1143
22.5548
23.2824
23.0041
21.3194
19.7471
20.7334
21.1924
21.2315
22.4425
21.9444
19.2441
17.3055
18.5507
20.9483
20.919
20.1426
21.4122
23.258
23.4777
22.8673
22.0763
22.6085
23.2482
22.1349
21.544
21.3048
21.5343
21.3926
18.873
17.2128
16.8221
16.7928
17.2616
18.0233
19.8252
20.2354
19.1171
18.9609
19.8447
20.8946
20.9825
20.1133
19.1367
18.5361
19.6006
21.7442
21.8468
19.5908
17.9257
18.204
17.9745
18.5409
20.3184
20.3672
19.0976
18.1259
18.6191
20.8067
21.6563
22.213
22.6183
21.9444
21.5929
20.8018
19.3222
19.9619
22.0616
21.3096
19.1513
18.7119
20.0449
21.5245
22.2228
22.6818
22.1593
20.709
20.2256
20.0352
19.7812
20.25
21.7979
22.3058
20.9043
19.5957
18.3945
18.2528
18.5165
18.1161
19.3515
21.2755
21.7052
21.5733
21.0118
20.9971
22.4327
22.6232
21.3975
21.0899
21.9395
22.6134
21.4268
20.1572
19.1855
17.9892
19.7861
22.1837
22.6134
21.1973
20.5283
20.8702
20.1084
20.2598
20.9239
19.835
19.1904
22.0616
24.7278
23.1261
19.8935
19.0244
20.3233
21.2169
21.3633
22.0909
22.3497
21.2901
20.2402
19.8496
19.0781
17.1151
15.9969
17.9696
20.543
21.2901
20.6993
20.4209
19.332
18.5605
18.8779
19.9375
21.6124
22.9015
22.1935
20.7237
21.5831
23.1212
24.3274
24.5959
23.3752
21.5538
20.2695
19.8935
19.3515
19.3759
21.2217
23.4191
22.9796
21.3682
19.8594
18.6972
19.4687
20.5918
21.7345
21.8858
20.0938
18.7851
18.2626
17.955
18.9804
21.334
23.2238
24.1516
24.2688
24.0344
22.7501
20.8018
18.7997
17.8183
18.0087
16.5535
15.6697
18.0673
20.2695
19.7519
19.2002
20.0303
21.0508
21.8956
21.9102
21.0997
20.6651
19.7715
18.1064
17.7841
17.8476
17.9306
19.083
19.5469
19.3613
20.5869
22.0714
22.1691
20.6748
18.6337
16.6952
16.119
17.9061
18.9121
18.2528
19.1025
22.462
23.8244
21.6417
19.083
18.2187
19.2295
20.0303
20.8555
22.2325
21.6954
20.2158
20.2549
20.9092
20.5869
17.955
15.7674
17.1493
18.79
19.4394
19.8691
20.9776
22.5988
22.0372
19.3369
18.3066
19.3027
20.6211
20.6944
19.4443
17.6864
17.0565
18.0429
19.122
18.8437
19.1318
21.0167
21.8175
20.5332
18.873
18.3359
18.6972
19.0048
18.331
16.954
16.4705
18.2919
19.4834
20.3379
22.7599
23.59
21.1631
19.5957
19.9717
19.6982
19.5615
20.1621
20.3867
19.4638
17.6571
17.3934
19.7031
20.3623
19.708
19.7568
19.3271
20.5967
22.0714
22.3888
21.4073
19.4101
18.7363
20.1816
21.6124
20.5576
19.3076
20.5967
23.8977
27.2279
27.4574
24.0832
20.3672
19.2002
19.9228
20.9532
21.4073
21.6466
21.3389
20.1377
18.3261
18.4433
20.4844
21.9933
21.505
20.0938
19.7324
20.4258
19.3906
17.3983
17.4862
18.5702
19.0195
19.5664
19.7226
20.0205
20.1377
19.3711
18.7216
18.5995
19.0146
20.0547
21.4708
21.2852
20.4649
21.0411
20.3281
18.1503
16.7928
16.3533
17.0858
18.5702
20.2744
20.7627
20.7041
21.1436
21.1241
20.6993
20.7969
19.7226
17.5155
18.4677
19.2636
17.8817
17.5399
19.1171
19.166
16.827
13.9704
13.7702
15.1619
15.9627
17.0418
18.3945
19.3466
20.4112
20.67
20.1914
20.2012
20.7823
20.7774
19.3808
18.5849
18.7704
17.7987
17.3641
18.7607
20.3037
19.6201
16.9979
16.1678
16.2117
15.9676
17.7108
19.5224
19.4345
19.0195
19.6103
21.5294
22.3497
21.7052
20.9727
21.1534
21.002
19.0195
17.789
18.3652
20.4209
21.6759
21.0508
20.0107
19.0341
19.1123
19.8154
20.9727
20.8702
19.581
19.835
19.1123
17.7987
19.0146
20.709
20.626
19.4394
17.9257
16.6707
16.9198
17.1688
16.2752
17.3348
20.2988
22.4327
23.2482
22.921
22.6476
21.9249
20.2842
17.8915
17.4764
19.1562
19.1123
18.4677
18.5751
17.7694
17.5106
17.789
18.1601
19.5566
19.2832
18.3847
19.2246
20.0645
19.7422
19.7422
21.4561
22.0421
20.4697
18.3652
17.6669
19.4687
21.2657
21.6173
21.1387
20.1475
19.664
20.0889
21.7149
22.5939
21.92
20.5674
17.828
16.075
17.6132
18.6142
18.7753
18.8974
17.6083
16.3387
17.7059
19.1757
18.8974
19.2099
20.0547
20.543
22.0519
22.7892
21.6563
19.918
18.2382
18.3945
19.1904
18.0868
18.0722
18.9365
18.0722
15.826
14.2487
16.744
19.3027
19.3125
19.2734
18.6142
16.8661
16.6366
16.8123
18.7753
21.8565
21.8419
20.6797
19.3808
17.369
17.6766
18.4579
17.1737
16.9051
18.2724
18.5409
19.1074
20.3477
21.0655
20.4697
18.9121
17.0174
15.9676
18.3212
20.4746
19.2246
18.2382
19.039
19.7812
19.6592
18.5898
17.9013
19.249
21.505
22.462
22.4767
22.2667
20.3721
18.4872
18.4628
18.1454
17.2323
16.9198
17.4423
18.0722
18.1357
17.7157
17.8524
19.0195
19.3173
18.1601
19.0585
21.0557
20.7578
20.2891
18.7363
15.616
17.0711
19.5566
20.167
21.2022
21.4903
20.1133
19.8643
20.875
21.002
21.0606
20.6895
18.6435
17.8915
18.4579
19.3857
20.9336
21.9444
21.378
18.8681
17.1444
16.7782
18.4042
20.6358
20.3428
19.6982
20.6797
20.8555
19.0585
17.3641
17.1883
18.7216
20.3086
20.9483
21.4219
21.7735
20.836
19.4638
19.6982
20.5137
19.9033
18.7167
19.6396
20.7286
20.6162
19.6347
17.6864
17.5839
18.8339
18.2675
16.4559
16.158
16.8514
17.9452
18.6191
17.6864
17.8231
17.5692
17.5399
19.1611
19.4883
18.2724
17.6425
17.0565
17.0174
18.4286
19.0341
18.5312
18.8632
17.7792
16.3094
18.6923
21.4561
22.1349
21.7442
21.4268
21.754
22.3302
21.2803
18.2333
17.1542
17.5692
17.076
17.1786
18.1942
17.6034
17.413
18.7656
20.6553
22.7648
22.3302
18.6533
17.1639
18.0868
18.1845
18.9511
18.7411
16.1922
15.2449
17.4471
18.2724
17.1883
16.4168
18.1015
19.9717
20.5821
19.6885
17.413
17.3348
18.3456
18.204
16.6952
14.9128
15.3035
17.9208
19.9619
20.4502
20.0303
18.746
17.7157
18.2138
19.1855
19.4297
18.6484
18.624
19.7764
19.7764
17.9794
16.4119
16.368
17.4862
18.3896
18.8242
19.3027
18.5849
18.5458
20.875
21.1338
18.1112
17.7694
21.2559
23.4289
23.5217
21.964
18.7753
16.9442
17.2323
19.2099
20.9483
20.6602
19.0195
17.4911
17.7304
18.1747
18.6093
18.9023
19.0097
19.9521
22.1007
22.6085
20.9678
19.5957
19.249
18.3407
18.2382
18.2138
16.827
15.9285
16.2752
18.58
20.4649
20.2647
20.3819
19.5908
17.6669
18.3847
19.0439
18.7509
18.663
17.8183
18.0429
17.9989
17.9208
20.6993
22.3937
20.4502
18.8876
20.9385
22.8234
22.4816
20.2988
16.8954
17.7938
19.0683
17.8768
18.5702
18.7119
18.3652
19.8008
21.9249
21.4903
20.7969
22.1886
22.1349
21.1583
20.836
19.9228
19.1123
19.6738
18.7802
17.5985
17.7792
17.7743
17.9843
18.2968
18.4091
17.8866
16.4071
16.2117
18.1552
18.3407
17.5106
17.1737
15.8211
14.8835
16.4412
18.3163
18.8632
18.58
17.911
17.6669
19.4297
20.8604
21.2364
21.2071
21.1631
21.7931
21.8517
19.9766
18.956
20.3916
21.7003
21.1143
20.4258
20.8262
20.4649
18.5898
17.6425
18.8486
20.2793
20.0254
18.287
17.7255
17.5546
18.1308
19.2978
20.5186
22.0567
22.1153
21.5147
21.5684
22.1593
21.5636
19.8398
18.8486
18.6679
16.2361
15.1619
17.7645
18.6581
18.0673
17.3788
17.0516
17.8622
19.1757
17.7304
16.6952
18.8925
19.4736
17.9208
16.6073
18.1161
20.2988
21.1827
20.9385
19.4541
18.1698
17.5497
18.4628
19.0097
18.3603
17.6864
16.7049
16.2606
16.3045
16.4071
15.7674
15.45
17.6278
20.0205
20.9922
20.7481
19.4443
18.7656
19.2783
19.6885
18.6777
17.9745
19.0048
19.5566
19.6201
18.7851
17.7499
18.7558
20.1816
19.6738
19.0292
19.6006
19.9814
19.1367
17.8329
18.453
20.1768
22.003
22.716
21.92
21.2559
21.3731
23.0919
23.3654
19.6836
16.3143
15.8016
15.2205
15.0984
16.3875
16.8221
17.0028
16.8075
16.9198
18.4433
19.4004
20.2647
21.1729
20.3672
19.4931
19.874
19.8105
19.7568
20.8213
20.9971
20.1231
20.2207
19.1757
18.4189
19.5371
19.0146
18.0868
17.4178
15.8455
14.7908
15.7771
16.3729
17.6278
18.5947
19.0878
19.5713
18.8388
17.7108
17.9208
18.9023
19.9814
20.5283
19.0732
17.3885
17.5741
18.1161
18.8681
21.4024
22.5011
21.0704
19.5713
19.6885
21.212
22.7013
22.6525
21.0069
19.5615
18.331
16.0506
14.8884
16.7196
18.7704
18.7314
18.4384
18.2284
17.1444
16.7537
17.3446
18.7851
20.4502
20.2207
19.2588
18.2284
16.6219
17.6229
19.8301
20.3428
19.2636
19.3222
20.5283
20.2305
18.0233
16.744
17.5399
18.0722
17.8964
18.6777
20.167
21.4561
22.4181
21.7149
19.581
17.8183
17.1444
16.9442
18.1942
19.6836
18.3359
16.3094
15.9676
16.0311
17.0858
17.6034
17.1688
16.6903
17.0858
17.3495
16.7293
16.4266
16.8514
17.8085
18.9755
19.8252
19.8203
19.9375
20.8506
20.875
20.6358
19.8447
19.0927
19.7715
19.0488
17.9647
19.3173
20.7969
20.8067
21.0411
21.5343
19.459
17.994
18.7607
17.4471
16.0945
16.8416
17.7694
16.8465
15.0349
15.4939
16.1043
17.6473
18.7704
17.5643
15.7918
16.3631
17.6864
18.287
19.1855
18.8339
18.2138
17.9306
16.9442
16.6707
17.0809
17.7841
17.8866
17.6278
17.7694
17.1395
16.7391
18.0917
18.6874
18.6093
18.2821
19.2246
21.0997
22.0567
22.3546
20.7188
18.3017
19.2246
21.6173
22.672
22.7306
21.7589
20.5625
20.5625
19.7617
18.2821
19.5224
20.1621
20.4453
20.5576
17.9599
16.6219
18.1942
18.37
16.7391
16.8319
20.3037
25.8216
28.7514
27.0619
24.0979
21.4561
19.3173
18.829
18.3993
17.7938
18.0429
18.0771
16.6903
14.8298
16.8221
20.2451
22.1153
22.5939
22.2179
19.8594
16.4852
14.8738
14.9861
16.8368
19.0195
18.3505
17.4178
19.8594
21.2364
19.8984
19.9912
20.4453
18.2968
15.7381
15.7332
18.1845
18.9414
18.1894
19.039
19.9668
19.6396
19.8154
20.9727
20.9825
19.6445
19.1562
19.3711
18.7363
19.7471
19.5762
16.744
16.0408
19.2392
21.2462
19.9668
17.7987
17.413
19.332
20.3526
18.7997
17.5204
17.5155
18.3066
18.9121
19.4785
19.1367
17.8183
19.1123
20.3574
19.2978
18.9365
19.0097
19.5566
20.1426
19.332
18.7265
18.0624
18.1259
18.1845
17.6718
17.5936
18.0233
18.497
17.789
17.3885
18.4921
19.6201
19.5859
19.2197
19.4834
18.2626
17.2616
18.4238
17.6815
15.8601
16.2459
16.8856
17.5839
19.5957
21.5538
20.8311
17.7401
16.285
18.1357
19.1953
18.0233
17.6229
18.0282
17.4716
16.6756
17.3202
19.3027
21.0557
21.4268
20.8604
21.7149
22.9748
21.8858
20.3233
21.3048
20.7578
18.2626
17.7597
18.6923
20.1328
19.7617
18.8779
19.7715
19.2295
17.6132
17.9794
19.4101
19.6689
17.9501
16.3924
18.1259
20.1816
21.0069
21.1924
20.3477
19.332
18.6435
18.5751
19.625
19.6103
17.9452
18.4286
21.0752
21.168
19.5957
20.3819
20.9239
20.1524
19.8154
19.8447
19.9912
18.7753
17.8671
17.9452
17.9013
19.1709
19.2734
18.7851
20.1475
22.1105
22.8917
22.1153
20.4942
19.6885
20.1328
20.416
18.8486
16.5877
15.9773
17.2567
18.9414
18.8486
18.2528
19.5469
21.334
21.1876
18.497
16.744
17.7352
18.6337
18.3407
18.3261
18.4042
19
19.708
19.6445
20.5772
20.8604
18.4677
16.2654
16.8807
18.3993
20.2744
21.8517
21.5343
20.1426
20.1914
19.4785
18.3798
19.5566
20.0254
20.416
21.1094
20.2598
18.2821
17.911
18.8632
19.6543
21.2901
21.1973
17.7157
14.4392
15.6306
18.4042
18.7216
18.8339
19.2734
20.0352
21.5343
21.8956
20.4258
18.7753
18.6679
18.8974
17.911
16.4217
17.3202
19.6201
19.7568
19.2295
19.6885
19.3466
18.7851
17.9257
17.4618
18.2235
18.3749
19.4834
21.0362
20.2598
17.7597
15.6013
15.9627
17.5155
17.3885
15.8211
16.1629
18.3359
18.5947
17.3837
18.3066
19.2636
18.2235
18.1503
20.0742
21.7345
21.2706
20.084
20.3965
20.5674
18.9951
16.8368
15.5672
16.5487
18.2187
18.7167
19.1709
19.0634
17.0711
16.0066
17.369
19.1416
19.1562
17.12
16.1287
16.4168
16.7489
18.248
18.9658
18.5702
17.1297
15.9285
17.4471
17.3299
14.2243
14.8738
17.1346
17.4276
16.368
16.0945
18.4286
19.7422
19.2246
19.8984
21.9933
23.0529
22.3009
19.708
16.6854
16.6073
18.0673
18.9511
18.8339
17.6864
17.9061
18.6337
19.1269
19.3418
18.9267
19.1464
19.7422
18.3261
16.5584
17.6669
17.8085
16.5047
15.406
14.9714
15.1912
16.7782
18.8583
19.122
18.9316
20.377
21.9249
21.754
20.3233
18.9755
18.37
18.6288
19.7861
20.0693
19.1123
18.6533
20.0303
20.0791
18.5947
20.0547
20.6162
18.5409
17.955
18.4482
19.0195
19.1171
18.7314
18.746
18.8583
18.4823
17.5399
16.7244
16.7733
17.1249
17.0858
16.3338
15.6209
17.2176
18.7509
18.8583
18.6581
19.0439
19.708
18.9609
18.3945
20.1816
21.1876
20.3819
18.9511
17.7206
17.9061
19.2246
19.6494
18.9902
17.8524
16.6756
17.0321
18.4775
18.8144
18.0966
18.1357
18.7216
17.8573
16.7244
17.3495
18.829
21.1094
21.9249
20.4942
18.4286
18.0478
20.4405
21.8858
20.4112
17.8134
16.6707
16.5633
16.4217
17.3885
17.4178
16.1141
15.4646
16.0604
16.6317
16.4608
17.3788
19.0488
19.3369
18.497
18.1161
18.6874
20.2744
20.2012
19.2246
19.7129
19.5469
17.7499
17.0858
17.4325
16.6903
16.5194
17.7108
18.2284
17.8671
18.0868
18.6923
18.9169
19.3369
20.1719
20.167
19.5908
20.7627
21.002
19.4638
19.0244
18.9169
18.3993
17.789
17.6278
16.9735
16.5438
16.5682
16.9491
17.2421
17.1004
17.1932
18.5263
20.7237
20.7237
19.6152
19.8594
18.7802
16.5047
16.7733
17.828
17.1444
15.8309
16.6463
19.6494
21.212
20.25
18.9755
18.6679
19.0537
18.4091
18.6435
20.416
20.1524
19.7031
20.9434
20.4307
19.8398
21.5929
21.9542
19.3466
17.6473
18.2187
20.001
21.7833
21.5343
19.9619
18.5702
17.3104
16.4412
16.9442
18.3896
19.0732
20.6016
21.8565
20.8262
19.7568
18.5214
16.9002
16.5535
17.7645
17.4276
15.533
16.4754
18.7949
20.8604
21.7149
20.1816
18.8095
20.4356
21.8565
21.5343
20.6358
19.5566
18.7949
18.1796
17.1786
17.4471
18.5898
17.7597
15.8748
16.7049
18.6972
18.5507
19.2441
20.9825
20.4356
20.0986
20.3965
19.3613
18.9902
19.2929
18.6777
18.5312
20.0498
21.7686
20.001
17.4862
17.7841
16.5242
16.2361
18.3017
17.3934
17.2176
20.1328
20.9776
20.4405
19.3662
18.4579
19.5029
20.2158
18.7656
17.5399
17.745
17.9843
18.4482
18.2626
18.0722
17.8427
17.4716
18.5605
18.2138
18.3798
20.0645
19.664
18.1796
15.865
14.8054
17.9403
21.9151
23.5705
22.4181
19.9375
17.745
16.1531
15.7967
15.8748
15.4793
16.8758
19.2148
20.5039
20.9776
21.0752
19.7324
17.0028
15.5623
16.3094
17.8134
17.9892
17.911
18.5409
19.2246
19.9521
20.3086
20.0205
20.0059
20.3281
21.0752
22.3302
23.1945
22.3302
21.2364
20.8995
19.0927
18.0868
18.287
18.0526
18.6874
19.6738
20.9971
22.1056
21.9054
20.7286
20.2354
19.7861
17.5497
17.1493
18.7558
19.8887
19.4443
16.6561
14.5417
14.4782
15.8846
18.3359
18.6484
18.0185
17.5692
17.6376
18.2724
18.204
17.8378
16.5633
14.6052
15.2547
16.9735
18.663
20.3281
19.8105
17.8671
18.4433
20.8409
20.3672
17.0565
15.6795
16.1434
17.8476
19.2832
19.4541
20.6651
22.2423
20.9922
17.789
17.1786
19.122
19.6054
18.2626
17.2372
16.8758
16.5194
16.617
17.8476
17.7743
16.6219
17.535
18.7851
19.5469
20.0693
19.6347
18.9804
18.873
18.9414
17.9599
18.6288
20.2109
19.9863
18.0722
18.0819
20.5137
20.3574
17.5253
16.9784
17.2323
15.489
16.2068
18.4286
18.8193
17.7304
17.4764
18.6044
19.0097
17.8329
16.3143
18.1845
20.792
20.8213
19.205
16.3875
15.8748
17.7938
17.7938
16.5828
18.0331
18.2284
15.3181
14.9373
16.368
16.6121
17.452
18.6533
19.3369
19.6054
20.6846
21.0801
18.5556
16.7733
16.9735
17.4764
17.745
17.2958
17.6864
18.2284
16.6707
15.2937
16.0848
17.5839
17.7645
18.1698
19.1562
18.7021
17.7597
18.0868
18.3017
17.8915
19.2929
20.7871
21.168
20.9922
19.8398
18.9218
18.4677
18.1503
18.0673
18.248
18.707
19.0683
18.7021
18.1405
20.0449
20.9043
19.7324
19.9521
20.0596
19.6738
19.3955
17.2469
14.029
14.7859
17.0809
17.6864
18.0624
17.9599
17.9745
18.4872
19.7568
20.6065
19.8398
18.5312
17.9696
17.4276
17.7401
17.3592
16.0506
16.9979
17.6864
16.6024
17.5497
19.664
19.9375
19.4834
19.0439
18.5165
19.0097
19.4052
19.4541
18.7704
17.5448
17.9843
19.2978
19.1611
17.7108
16.4119
16.8661
18.2919
18.8437
19.1904
18.0722
16.9344
17.3299
18.7558
20.1816
19.6836
18.9707
18.453
16.6903
16.3924
17.9061
19.498
19.5664
18.9267
18.8681
17.5302
15.8601
13.6774
15.4549
19.7031
20.1035
18.6679
19.4492
21.5001
21.3878
19.9912
19.2881
19.5517
20.4014
20.5723
19
17.2616
18.4775
18.9121
18.5312
18.497
17.5253
17.7059
19.6933
21.2755
19.791
18.3407
19.0585
19.1757
18.2773
18.4872
19.1318
18.1112
17.3495
17.413
18.0917
19.2929
18.7216
18.2821
19.0683
18.956
17.955
16.5487
15.9773
18.2138
19.4638
18.2626
17.4618
17.4813
17.4032
17.5057
17.1786
15.4402
15.1814
17.5741
18.6044
18.2724
17.9647
17.9794
17.3202
16.0604
17.6571
18.0331
16.9344
18.3798
19.4199
18.3847
17.5204
18.3847
19.957
20.2549
19.205
18.3359
16.6659
15.1375
16.0945
18.3652
20.1475
20.4746
19.7031
19.2441
20.0352
19.4052
17.5155
17.0223
17.1981
17.6034
17.452
16.3338
17.0565
19.5957
19.4931
17.7108
15.9383
15.7527
17.4862
18.9804
18.8095
18.1698
17.8134
17.3739
18.0185
18.6874
18.1747
17.5106
17.9452
18.8876
19.8496
18.5654
17.1004
17.8378
18.0233
17.9599
17.828
16.7928
16.8075
18.7753
20.7286
20.626
18.8242
16.8221
16.744
18.4823
17.9501
15.3523
15.1716
17.3348
18.0673
16.7684
16.368
16.0799
16.0359
17.4764
17.5009
16.6024
17.5692
20.1621
21.6026
20.6162
18.9755
18.0233
17.9354
18.1454
17.5595
16.0604
16.5389
18.3261
19.5957
20.4942
19.4883
18.6337
19.1171
18.1845
17.1883
17.5497
18.37
19.7471
20.1865
19.6201
20.3721
21.9347
21.7247
18.9609
16.0311
15.4256
16.8661
18.5263
18.7753
17.3006
15.2107
15.5037
16.4168
17.5106
20.1914
21.461
21.0704
20.5332
18.4286
16.6073
16.7928
17.7743
18.7656
18.5898
18.5605
19.6006
20.7237
20.9971
20.9385
20.8018
20.4063
20.6455
20.7041
18.7509
16.5926
15.9578
16.3973
17.4862
17.7987
17.5692
16.827
16.6073
17.9306
18.79
19.7226
19.9473
18.8779
19.5908
19.6103
17.7304
16.827
17.2469
19.0097
21.3145
21.9786
20.416
19.1904
20.5528
20.416
19.1709
20.0547
20.4795
18.6386
15.8357
15.1668
17.3983
19.9228
20.4307
18.8681
18.0282
18.7704
17.5302
17.452
19.9277
20.1768
19.3808
18.663
17.789
17.5839
17.7597
19.7422
21.9054
21.9151
19.7422
16.2899
15.2498
17.0711
18.414
18.7314
19.8301
20.6309
18.8437
16.7391
17.0663
17.1835
16.9198
17.5253
18.0673
18.5214
18.2626
17.9159
19.7471
21.3438
19.8203
17.5595
17.4813
18.5947
20.001
21.9981
22.4034
20.25
18.9511
19.1171
18.9316
18.7411
18.2577
17.159
16.202
16.1824
16.954
18.2675
19.6787
20.6846
20.4551
19.2636
19.415
20.5479
20.3526
18.9218
17.8817
17.4081
18.3114
20.2451
21.5733
21.0069
20.5283
21.9786
22.5206
21.2803
19.8398
20.1231
18.6581
16.5926
18.7021
20.3233
18.8144
17.7694
18.1308
19.0244
19.7031
18.8095
17.5985
17.7841
18.3066
18.0917
16.7489
17.7059
20.9727
21.0264
17.6864
16.0457
17.413
19.498
21.2852
22.6622
23.048
20.8897
17.9403
17.6718
20.3281
22.3986
21.4415
18.8486
17.9794
18.3212
17.7841
16.4022
16.5242
18.4775
19.8496
20.2061
20.4014
20.753
20.3623
19.0097
17.7059
16.1482
15.533
16.7733
18.1161
19.3564
20.5235
19.8301
18.0868
17.8573
19.3759
20.7969
19.7129
18.6386
18.8437
19.5078
19.7422
19.1513
18.1112
18.4335
20.3135
21.0655
20.5137
19.8252
19.332
18.58
18.3017
17.3299
15.2839
15.909
17.5106
17.9061
17.8231
18.4482
18.7949
18.3505
18.6923
20.5137
22.3351
21.6124
20.1621
19.1318
18.3212
18.8632
19.8984
19.7715
18.9755
18.4091
19.0439
19.0341
18.5507
19.6103
20.836
21.5733
21.002
18.8779
17.1249
15.8064
15.7381
17.0125
17.9599
17.7743
16.3094
15.9529
17.1883
16.4412
15.0837
15.8357
18.5214
19.0244
17.8524
17.2372
16.7489
18.3212
19.8301
20.0938
20.4209
20.4697
21.1436
21.5831
20.2158
19.3466
20.4209
21.1534
20.1524
18.9707
19.1367
19.3613
19.1171
19.039
19.9619
20.9043
20.1035
18.4335
17.7645
17.1932
16.8758
18.1601
19.3564
17.4374
15.8748
17.3251
18.4726
18.5849
18.5702
18.1552
18.2284
17.1883
16.4998
18.7119
20.836
21.461
20.1377
18.0429
18.0771
18.1845
17.3592
16.6561
17.1395
18.8779
17.828
16.6903
18.2284
18.7314
17.6913
16.8221
17.4325
18.3017
18.0575
17.2811
16.0897
16.4608
17.5643
16.8514
15.7088
15.6209
16.2606
16.8319
18.0868
18.1454
18.0185
20.0645
21.5391
20.0303
17.8866
17.7304
17.3348
16.8368
16.6903
15.7234
15.5965
18.0136
18.3896
15.4939
15.5281
17.4667
17.9354
17.8134
18.1942
18.3603
17.5839
17.1688
17.0663
17.1346
18.1601
17.618
15.3767
15.9334
19.1611
21.3438
21.0362
19.7324
18.956
17.8524
16.7098
17.6278
18.3554
18.3798
19.3466
20.1719
18.7802
18.0917
19.3906
20.2891
21.7833
22.7306
20.8067
19.0781
19.3759
18.0966
17.0907
17.3055
17.3837
18.0282
19.1464
18.1942
16.6659
16.9686
17.8231
19.2636
19.4931
18.8828
18.0429
16.7489
16.8563
17.6669
18.038
18.0233
18.6581
19.5273
18.7704
17.0418
16.1727
16.4461
16.2996
17.2567
18.6777
17.9794
18.1845
20.8506
21.5636
19.4052
17.7792
19.0585
20.1279
19.7324
19.4638
19.9521
19.0537
17.2665
17.535
17.6815
17.6473
17.9257
18.5068
19.0195
19.8887
20.0986
19.4394
19
17.828
17.6327
18.5409
18.7607
18.7363
19.5566
19.9619
19.0048
18.8486
18.7851
17.6864
18.1259
18.4042
18.5165
19.0976
17.6278
16.1922
18.2675
20.9678
21.5391
20.9581
19.9961
18.7216
18.0771
18.8339
20.1524
20.9629
20.6846
19.3222
18.1845
17.9208
17.2372
18.2284
18.6191
18.4726
19.0244
18.4042
18.9707
19.9766
19.6836
18.2821
17.6864
18.0722
17.662
17.037
17.1249
18.9316
20.2354
19.039
17.6278
18.6874
18.3359
16.5487
17.076
17.8036
18.3896
19.3076
18.8095
17.3153
15.9725
15.0496
15.3572
16.7098
17.5936
18.0087
19.3613
19.918
19.0781
18.9072
19.6445
19.664
19.4687
19.8203
19.1757
17.9452
17.9306
19.708
20.4795
19.4834
19.6689
20.4746
19.7031
19.3173
20.3477
19.9375
18.5263
18.287
17.8134
16.9393
16.3485
16.451
18.3847
19.8398
17.8183
14.7859
16.2899
19.1074
20.2598
18.9218
17.0663
17.4764
18.5116
18.9462
18.4091
18.79
19.8887
19.3125
19.2783
20.25
20.46
21.1631
21.3633
19.6982
17.9794
17.6669
17.5399
17.2225
17.9354
20.1572
20.6065
17.9061
15.4109
15.3181
17.1102
18.0868
19.3857
20.8653
20.626
21.1436
21.8321
19.9277
16.4217
15.9187
16.0799
15.24
16.3436
17.2421
16.3729
15.489
16.4119
17.1835
16.2606
15.8113
16.0213
16.5682
17.6425
17.8085
18.1454
19.7617
20.5039
20.0107
18.8681
17.9892
18.2724
19.3222
20.0547
19.4736
17.9696
18.2431
19.3418
18.3456
16.2654
16.2117
16.783
18.331
19.8594
19.6006
18.4775
16.6366
15.4207
16.6854
18.4579
19.1318
19.2392
19.4736
19.5859
18.4238
18.6337
19.7275
18.3798
17.6962
19.1123
20.5479
20.4307
19.5664
19.6543
20.8164
21.1583
20.3184
17.9257
16.7342
19.4004
20.7286
19.3711
18.2577
18.707
19.2588
18.5263
17.0272
18.5702
20.7627
20.5088
18.7167
17.3153
17.9061
18.5312
18.3554
18.5458
19.2197
20.5528
20.9483
20.0205
18.9755
18.4091
18.5556
18.7753
18.0136
16.3826
14.8152
15.5281
18.6191
20.0156
19.249
18.2089
19.2978
20.5821
20.2061
19.8496
20.2061
19.5566
18.7509
19.4345
18.5409
17.0125
18.2968
18.7949
18.9267
19.7422
18.5556
16.0652
15.7185
16.3631
17.3202
18.3359
18.0624
18.7411
19.9717
18.7656
17.6962
18.6435
18.6337
18.2968
18.2528
18.5068
18.7314
17.872
17.662
17.5448
18.3652
20.3428
20.2158
17.8036
15.4549
16.1922
19.8496
21.6856
20.919
19.5029
18.5312
17.8964
17.9403
19.0781
18.7607
16.9833
16.5926
16.5535
17.5546
18.7656
18.2284
16.3436
16.8368
18.1747
18.0087
18.2528
18.3945
16.8612
16.2508
18.6337
19.3418
18.8388
19.6006
19.664
17.7938
16.8172
17.5546
18.7997
20.6358
20.8653
20.3086
20.2402
19.7178
17.9794
17.0711
16.9442
16.5535
17.0663
17.7108
17.8085
18.497
19.5957
19.8203
18.0868
16.6854
16.9002
15.4842
15.8846
17.9794
17.1249
16.9491
18.6826
18.5751
18.2089
19.1562
18.9072
17.9354
19.1904
19.9082
18.6191
17.7011
16.3289
15.3963
16.8563
18.0233
18.3066
18.624
18.5019
19.1171
19.5176
18.6972
18.6874
20.6211
21.8712
20.626
19.6152
19.1709
18.5458
18.3163
16.3338
15.406
15.9432
15.8748
16.2752
17.5546
19.3369
20.9874
21.2999
21.0215
21.2901
21.0313
20.0791
19.9668
19.9814
20.1279
20.1328
18.3017
17.1737
17.5985
17.9696
18.8339
18.0575
16.5975
17.203
18.0575
17.9599
17.452
17.2274
17.6473
19.7226
20.3574
19.0439
19.2295
19.2588
19.2539
20.3965
21.212
21.6807
21.5977
19.5957
16.8563
16.2508
18.1649
18.5898
17.579
16.578
15.8553
16.8563
18.0478
19.166
20.1768
20.6162
20.8506
21.334
20.5869
19.3515
18.6581
17.4716
15.9969
14.9714
16.8563
20.7041
21.9688
20.1865
17.8378
16.6952
18.2528
20.084
19.6738
19.083
19.5078
20.1621
19.0146
17.037
16.744
17.0028
16.91
17.3788
17.076
15.9578
16.7537
17.2421
16.0604
15.5379
16.8758
17.4276
16.4315
16.1824
17.5936
17.6913
16.7684
17.3495
18.0038
18.7314
19.2929
18.3212
19.2832
21.085
21.6319
21.3145
19.5322
17.4423
16.0457
17.5936
20.2305
19.9033
17.662
15.8601
16.3729
18.5898
19.7324
19.0732
18.1259
19.3955
21.2169
21.2803
21.0411
20.9288
20.0156
19.9912
19.7178
18.5214
18.4335
18.9804
18.8632
18.8925
19.6738
19.0146
17.4374
17.9501
19.3125
19.7422
19.2734
18.6337
19.4883
19.8789
19.0732
19.1416
19.2295
19.2441
17.8573
16.2068
17.8085
19.6933
20.0596
20.0889
20.1865
19.2881
18.37
20.3037
22.2081
22.086
20.9776
20.1963
19.4199
17.789
17.662
18.4579
17.1053
15.1619
16.0457
18.6533
21.2852
22.0372
20.6162
18.4775
16.9881
16.2557
16.4266
18.6386
21.0899
19.664
16.8319
17.286
18.2773
16.9735
15.2595
16.0652
16.6121
15.6697
16.2068
17.7645
18.1698
17.2518
17.4374
19.2783
20.0938
19.3515
17.4667
16.1971
17.2567
17.0858
16.9588
18.0575
18.5458
17.1639
15.45
17.6376
20.6016
19.8203
17.6718
18.2382
18.8974
18.7997
19.459
19.5371
19.5664
20.7432
20.5967
19.4834
18.7314
16.7782
16.4949
18.0331
19.2685
21.0459
21.6612
20.9874
18.9072
15.7527
14.4196
16.5877
17.1835
15.5672
15.7625
16.5633
17.8427
20.5186
21.0997
18.7167
17.0272
19.0878
20.1865
18.3407
16.9881
17.0174
17.203
17.413
17.3251
17.6571
17.0467
16.8807
18.3163
16.954
15.533
17.9745
19.2295
17.6571
16.9247
18.3407
19.2246
18.9316
18.1259
17.6229
18.1503
18.0331
17.0565
16.744
15.8016
15.2986
15.8748
16.2752
18.121
19.8838
19.4101
19.4199
19.7471
18.3407
16.4949
16.8856
19.2588
20.5576
20.4405
18.9267
17.2079
16.8612
16.5682
16.6121
18.1357
18.6386
17.9306
18.1991
19.0732
18.9707
16.8661
16.3436
17.8671
17.9403
17.8427
19.7129
21.1778
20.9874
20.0498
20.0449
20.1768
18.5068
17.8622
18.9121
19.4101
18.2724
15.6355
15.5965
17.3055
17.0614
15.3816
15.2302
17.579
20.0107
20.9874
20.1084
19.2832
20.4795
22.3937
23.2482
22.047
20.2647
18.5702
18.0966
19.0634
18.956
19.4297
19.8789
19.835
20.001
17.6327
15.4744
15.7527
15.6502
17.1981
19.5078
20.6602
21.7393
21.5391
20.1035
20.4697
21.4366
20.8995
19.2734
18.2187
17.9159
17.0028
17.2909
19.1269
18.8046
16.9002
16.0652
16.1482
16.8319
18.0136
19.3808
19.6445
19.581
19.3418
17.0028
15.9725
18.5702
20.4795
20.5186
19.332
18.1503
18.5556
19.3564
18.9658
18.8437
19.498
20.04
18.746
17.2762
16.9295
18.3212
20.001
18.9755
18.0868
20.3086
21.3389
20.4014
19.9277
19.0878
17.5302
17.413
19.4492
20.1572
18.79
17.5643
16.8709
17.076
18.121
19.4541
20.4112
19.0537
17.5057
19
20.3721
19.4541
17.8768
17.6425
17.4569
18.624
19.874
18.7607
18.6337
18.9511
17.4716
17.5497
18.0624
17.6962
17.6913
17.2811
19.0683
20.333
19.1269
18.4872
18.7558
18.8925
19
18.3896
16.0311
14.5808
15.9578
17.6522
16.9979
16.075
17.2665
17.8768
16.5975
15.2302
16.3143
19.0488
20.6553
20.6944
19.8545
18.3505
17.6718
16.783
15.2547
14.6589
16.0994
19.1025
20.9483
20.0547
18.37
17.7841
18.0185
19.4394
20.3428
20.1865
19.3515
17.2567
17.4081
19.2148
19.3466
18.6337
17.1542
15.8797
15.6306
15.6453
17.0077
18.497
18.2333
18.2138
17.994
17.9403
20.1719
22.882
23.9318
22.2521
19.3369
16.8563
15.074
15.0105
16.0262
16.827
17.1493
18.1698
19.4004
18.5409
17.1493
17.7352
18.1552
17.789
19.7861
20.5283
17.7987
16.9833
17.6229
17.745
18.4872
19.3271
19.664
19.0048
19.0732
19.6933
19.2441
18.4482
17.4667
17.5595
19.3125
20.7432
19.8984
19.0976
19.9375
20.9288
20.4746
19.4785
18.7997
19.8789
20.46
18.4775
17.1102
17.7304
18.7411
18.4775
17.6083
18.1796
18.3798
15.9432
15.1619
16.3533
16.285
17.413
18.5458
19.2881
19.6152
19.8203
19.7812
18.5507
18.5898
20.3477
21.2413
21.3096
20.7725
18.8583
16.8905
17.3495
18.5312
18.4433
18.1796
18.1112
18.5165
19.1269
18.9121
18.5361
18.9609
18.6874
17.5546
18.624
19.6543
19.166
19.0439
19.0585
18.4579
16.8563
15.7723
18.2528
19.1464
17.2811
16.1922
16.4705
17.6034
18.7265
19.3515
19.8398
19.0976
17.7938
19.3222
20.2207
18.2968
17.2372
18.6484
18.0917
17.0614
18.7265
18.6044
16.0408
16.0066
17.2567
17.6425
18.121
18.4286
19.0683
18.9853
18.4726
17.7792
16.5877
15.9285
16.9735
18.2333
18.7558
19.4052
20.2256
21.881
22.0909
19.9131
18.3261
17.8964
17.5887
16.8123
15.9236
16.5438
17.662
18.3847
19.1416
18.2724
18.0038
20.1719
20.543
19.3613
19.0488
19.498
19.8789
18.6337
16.7049
16.2166
15.8699
16.5633
18.0673
18.3066
17.3006
17.7206
19.3369
18.4091
16.1043
16.7879
18.0331
17.5546
18.0136
18.9658
19.664
19.6836
19.8447
20.8311
20.1963
18.0038
16.368
17.6327
19.3027
18.9902
18.2724
18.6972
18.287
18.0087
17.9061
17.0028
17.5009
17.1932
17.2274
19.4931
20.3916
20.1865
19.9473
20.0498
19.6543
18.3456
17.5692
18.0136
18.453
17.872
18.4726
20.6016
21.8956
21.7247
21.2217
19.7324
18.7119
21.0997
23.7023
23.1945
20.1182
18.3212
17.1102
15.6013
16.119
15.8455
16.324
18.7021
19.1074
18.248
17.6327
17.2225
16.0604
17.0125
18.9853
19.5322
19.498
18.0526
17.4423
18.0673
18.37
19.2197
20.1328
19.7226
17.1737
17.076
20.3819
20.9239
20.3184
20.3086
20.1182
20.0449
19.8105
19.6494
19.2588
17.6083
15.9871
16.744
19.6299
21.3829
20.6846
18.7753
17.2128
17.8964
19.7471
19.8838
18.3603
16.8172
17.2714
17.6522
16.8758
16.7
16.3094
16.0506
15.9432
16.3533
17.6327
18.2284
16.6561
15.5769
16.6463
17.1004
16.8123
16.0262
16.3289
18.3798
20.5821
21.4805
20.1475
18.2333
17.4716
15.45
12.2369
12.6666
16.4656
18.5507
17.5399
17.413
18.2382
16.6219
15.9236
17.0565
17.7304
17.6034
16.8709
15.7332
15.6892
18.4677
19.2539
17.872
18.2968
19.4883
19.6494
19.3076
18.4579
17.3202
16.783
17.8085
18.7802
19.7226
21.0118
20.4405
19.0683
18.9072
19.7715
19.9912
19.5566
19.835
19.9961
18.1991
16.7733
17.7743
18.5458
18.8681
20.0645
21.0606
20.1035
18.7656
18.7851
18.6777
18.9462
19.332
19.2783
20.2402
20.3867
18.1894
17.5253
17.1249
16.4852
17.7645
18.9121
19.9473
19.5029
18.2528
18.1454
18.4189
19.4297
20.3916
18.9853
17.3837
17.828
18.829
19.6885
19.9082
20.6407
20.8409
20.8409
20.5088
18.5702
17.1493
17.1639
18.0917
19.0244
18.1161
16.5584
15.8357
15.7527
17.1151
16.7977
15.2254
15.616
16.6659
16.8612
16.0945
16.6561
18.7656
20.7188
21.8468
19.8838
18.248
19.3515
18.873
16.9784
16.5194
17.0907
18.1357
18.9462
20.1035
21.085
20.4746
20.5186
20.8604
19.7031
18.1552
17.8964
18.1747
18.3652
17.9061
17.3397
17.1737
17.535
18.1845
17.9208
18.4726
20.2061
20.7188
20.67
20.167
19.0781
19.1367
20.7383
22.1983
21.4464
19.4297
18.4091
17.9257
18.2235
19.0097
19.1904
18.7607
18.2138
17.0174
16.8758
18.9902
20.3574
20.6993
19.7715
17.8036
17.0956
17.4618
17.7645
18.7411
20.8409
20.8799
19.8057
19.8154
19.6836
19.1806
18.3896
18.5898
19.5615
19.6689
19.3271
18.121
16.8612
17.3153
17.8622
17.5497
16.9735
16.3778
17.8866
19.3759
19.3613
18.3798
16.8563
16.4022
17.12
18.7753
18.4433
17.5595
18.1796
18.5263
18.287
17.2176
15.7527
17.1151
18.3603
17.5985
18.4384
19.2197
19.0537
20.2891
19.6543
17.3837
17.6327
17.0077
16.9588
18.6093
18.1845
17.5692
18.1649
19.3857
19.459
18.1357
18.8339
19.1806
20.1963
22.1642
20.7871
17.5692
17.5253
17.3885
15.4451
16.9979
18.7167
17.618
17.7694
18.3652
17.452
18.0575
18.3749
18.5702
19.5713
19.166
18.9951
18.8046
18.7851
19.2002
18.6777
19.2295
20.67
22.3741
21.9688
19.3759
16.9344
17.3885
20.1572
21.3731
20.0693
16.202
13.8972
17.1835
19.6836
18.4628
18.7021
19.918
18.58
16.8221
17.1835
19.9131
21.1924
20.0205
18.0233
17.2665
16.0457
15.3963
18.1015
20.1475
19.1513
17.3153
16.91
16.6366
17.2616
19.3418
19.8691
19.0634
16.9002
14.4636
14.9714
17.7548
20.3379
20.7334
20.2158
20.1035
18.7656
18.1405
18.9316
20.1963
21.8028
21.9688
21.378
21.8614
22.1398
20.8702
19.6396
19.0781
19.7226
21.5245
22.5548
22.4279
21.8175
20.4795
18.0282
16.4217
17.3885
17.8183
17.1493
17.9599
17.7011
15.7234
16.0945
17.4227
18.2431
19.1171
18.9169
18.4286
18.8876
20.1279
21.4708
20.1231
16.7537
15.8699
16.1824
16.9442
17.6083
16.7
16.1434
16.7489
16.9002
16.202
16.2996
17.3446
17.8427
17.9794
18.2187
19.2832
20.3233
20.1133
19.7373
20.8116
21.4122
20.4453
18.2235
17.2079
17.7645
17.0467
14.9568
14.1169
15.7527
16.6561
17.0125
18.2675
19.1171
19.0341
17.5155
16.4022
18.9414
21.1094
20.8311
20.1328
19.5615
20.4551
22.7697
22.2325
19.835
18.3456
16.6463
17.1737
19.5322
21.1583
22.0323
22.0763
21.4268
20.9092
18.9511
16.6219
17.0125
19.0878
20.04
18.9902
18.3798
18.4286
18.5898
19.1757
21.0997
22.9113
23.5558
22.0177
20.5137
21.8419
22.7501
21.3731
19.9228
19.874
20.67
21.8858
22.6769
21.9005
19.8594
19.2734
19.9375
21.2071
22.3986
23.2531
23.6291
21.9884
19.957
18.5019
16.6512
16.5682
17.3299
16.3533
16.7293
18.6533
18.8535
17.9208
17.8329
19.1611
20.1572
19.2929
17.5204
16.7489
18.3017
21.6954
22.6818
20.2647
19.9228
19.9766
18.0233
18.5458
19.459
17.8329
17.0516
17.1639
16.8954
17.6278
17.4178
16.9784
18.58
18.9804
17.2372
16.6659
17.6132
19.2148
20.5625
20.8262
20.8018
21.7393
22.8136
22.4962
21.5391
19.8594
18.8339
19.8545
21.3487
23.1701
23.7463
21.4903
19.8203
20.377
19.5957
18.1112
17.3739
16.6561
16.5389
18.3603
20.3574
22.2081
22.6769
20.3184
18.3407
18.9023
19.8447
19.4785
18.2773
17.3544
17.0516
16.7196
16.2361
17.4081
19.3076
19.8496
19.1025
18.7851
19.5664
19.5859
18.6728
18.7363
18.5116
17.2567
18.4286
19.5322
18.9218
18.5312
19.3418
19.5469
17.7255
16.4168
16.6366
16.451
16.2313
18.6044
20.3037
20.1328
20.0156
19.5176
19.2441
21.881
23.0236
20.9043
19.7275
17.8573
15.8211
16.6121
16.8319
15.8699
17.2567
18.5019
17.8817
18.6581
19.6543
19.7275
21.0508
21.3194
18.6288
16.7391
16.1043
15.45
16.2166
16.0018
15.9529
18.1942
21.1485
21.9542
20.9483
21.1338
21.4366
20.2256
20.3526
20.8116
19.3222
19.581
20.4551
19.7812
18.7363
16.4363
16.5975
17.7645
18.2431
19.083
19.3173
18.6386
17.535
18.1259
18.3261
17.9403
19.874
19.9473
16.7391
14.5417
15.1521
16.5877
17.3837
17.662
18.5556
19.1611
17.9452
16.9149
18.1161
18.6093
17.8329
17.9208
17.8524
17.5546
18.1991
20.4405
21.3682
20.7188
20.0938
17.9452
15.4207
15.8894
18.5849
20.4746
19.9961
19.8935
19.9228
20.0547
20.8457
20.2988
19.5859
19.1953
18.6728
18.5702
18.5751
18.1698
16.534
15.2888
17.6864
20.5039
20.1084
18.0185
17.5936
18.5654
18.4872
17.2909
18.3798
20.1377
20.543
20.4795
19.9619
18.5116
17.7011
18.0429
18.5605
19.0683
21.1583
22.3595
20.0156
17.1737
16.7049
16.4412
16.0848
16.0213
17.2372
19.7861
21.4024
20.7725
18.6923
17.8671
19.039
18.8974
18.1942
18.6533
17.2323
15.4842
17.2714
18.4823
18.4482
18.9707
19.1904
19.5762
20.7334
21.837
22.2374
22.1837
21.71
21.3682
19.9033
17.3446
17.3739
17.7743
18.1405
19.3613
19.0048
18.663
18.5605
17.6327
17.6327
17.3153
16.1873
15.782
16.5487
17.3641
18.5751
19.8496
20.04
18.9804
18.7997
19.9277
19.5273
18.4823
18.5019
18.9658
19.1562
19.4199
19.1806
20.1182
21.6417
21.7442
20.9434
20.2305
19.7715
19.0585
18.7607
19.3076
19.0976
17.8183
16.2361
15.1619
16.9881
19.459
19.9717
18.9511
19.7861
20.8604
19.3027
18.6142
19.7617
19.5029
17.789
16.9979
17.2762
17.6034
18.6728
19.9521
19.5615
18.8974
19.5273
19.1855
18.3114
18.4775
18.7314
18.624
18.2724
18.8193
19.5664
20.0254
20.5674
21.2364
21.8565
21.5977
20.1182
17.1297
15.4695
16.4217
17.5741
18.1747
18.9023
19.5078
20.543
21.002
18.8242
17.203
18.3261
18.7656
18.5019
19.5273
19.5224
17.3348
15.8309
16.1873
16.0018
15.6599
15.9041
16.324
17.1493
17.2762
16.5389
16.661
17.8134
19.1904
18.4384
16.5633
17.6962
19.2246
19.3271
19.8545
21.0752
20.4844
20.4112
21.7003
21.8468
20.0547
17.9257
17.1444
17.159
17.7059
18.3456
18.331
18.7216
19.9375
19.874
20.1963
20.8457
19.8252
19.0439
17.7157
16.2996
17.0125
17.618
19.2392
21.378
21.0606
19.9814
20.0547
18.8046
17.7255
18.4189
19.7471
20.5869
18.8486
17.3739
18.8632
19.1025
17.994
18.5165
18.2821
18.7802
19.8398
18.038
17.3299
18.663
17.8964
17.5009
19.4248
21.2755
21.1338
18.8193
17.1444
17.9696
19.6103
21.0704
20.5723
19.9717
20.5137
19.6396
18.1796
16.324
15.3914
17.1981
19.2636
19.5371
18.3017
18.1698
18.707
18.7216
19.5762
21.5245
21.0655
19.0976
17.9354
17.3446
17.037
17.2079
19.0634
21.251
20.8164
18.7119
18.3261
19.0683
18.1894
16.7537
17.8964
18.3945
17.3397
17.6718
17.6571
17.1004
16.3631
15.572
15.5135
16.5291
17.8085
19.2148
20.499
20.377
20.3135
21.0801
22.7257
24.6301
24.508
22.3741
20.2891
18.4238
16.8368
17.0174
17.7938
18.4433
18.9951
18.2089
16.6219
16.9149
17.745
17.6718
17.5497
17.7792
17.8768
18.0331
17.9061
17.5741
18.3749
17.9452
16.9198
17.4862
18.5458
18.287
16.6756
17.4276
18.6728
18.9609
20.4697
20.7578
17.994
16.4949
17.9647
18.873
17.5692
16.9735
18.0917
18.5947
20.2793
22.3644
21.9298
19.4736
18.8632
19.8984
18.0966
16.0262
17.5887
19.7812
20.0986
19.5762
20.5283
21.7833
20.2598
18.3945
19.0439
18.3261
19.122
21.4757
21.1876
18.8876
16.9247
17.5643
20.2842
22.1446
20.6944
18.4335
18.9658
19.3027
18.3163
18.0819
16.5633
14.6296
15.2009
16.0066
16.4071
17.076
16.6366
16.0555
18.3945
19.5322
17.5643
16.9442
18.6874
18.79
17.203
17.0418
17.0174
16.3533
16.6805
16.9198
15.7967
15.2547
16.1287
16.6317
17.3348
18.2724
18.0819
17.6571
17.7548
18.4482
18.5556
16.5975
16.3485
17.8183
18.7119
19.6982
19.9961
19.1464
18.7265
20.7432
20.919
18.3554
17.8427
18.2528
17.5643
17.4227
17.6083
18.5702
19.1757
18.2382
17.0516
17.7499
19.3515
19.1953
20.1035
21.4268
20.2744
19.0634
19.957
20.4844
19.7568
19.8984
19.8447
18.3847
17.3983
18.497
18.9218
18.0136
18.5995
20.0742
20.6895
20.709
20.1914
19.1171
18.1552
17.7841
18.4872
19.1171
19.8154
19.2636
17.5741
19.1757
20.7286
19.5322
17.5643
16.7098
17.0663
18.0038
19.1562
19.7617
19.2588
18.2675
18.663
19.6543
19.8545
20.1865
19.2929
16.1971
14.781
15.1472
16.2117
17.9306
19.2588
19.5762
18.8876
18.6288
19.2832
20.0596
19.9131
20.1231
20.3281
21.2315
22.5988
21.7735
20.5283
20.3623
20.1572
20.3916
19.3173
18.58
19.8447
19.4834
18.5116
18.3163
18.3993
18.2284
16.6366
15.6502
16.661
18.1259
18.7363
18.3359
18.7265
19.0488
18.2577
18.5751
19.6347
19.8984
20.8213
21.8907
20.5039
17.3592
15.3279
16.4266
18.0917
17.8622
17.0565
16.4705
15.9822
15.6697
15.5428
16.7684
18.3212
18.6288
19.2881
20.9922
20.6407
18.8242
17.7597
15.7869
15.3328
17.2176
17.6864
17.2567
17.4618
18.0526
17.3348
16.0408
15.4256
15.7869
17.535
18.414
18.2284
17.4227
16.8465
17.1737
18.4872
19.1171
18.2284
17.6083
18.1796
19.3711
19.1709
19.5029
20.5186
20.5918
21.5684
20.9092
17.828
16.0604
16.6854
17.6766
18.7851
18.873
18.5068
19
18.9658
18.7607
18.0136
18.7802
20.7041
21.0411
20.0449
19.249
18.5898
17.872
17.2518
15.3035
15.3914
17.0125
15.8797
15.8943
17.745
19.4248
21.212
20.0889
17.0467
16.8221
19.5127
20.5528
18.7949
17.3055
17.1981
18.2284
17.8036
16.4168
18.248
20.6358
20.0938
18.0771
18.5263
19.1806
19.0146
19.0488
18.5458
17.6278
16.6268
17.1249
19.6006
21.5147
21.3975
20.4795
21.2022
21.085
20.2891
20.836
20.67
20.67
21.2803
21.0752
20.5137
19.1074
17.8427
18.4579
19.5957
20.1231
19.0439
17.1981
15.6795
16.8026
19.3955
20.1768
19.4883
19.4785
19.0878
18.2235
18.2235
17.7401
18.4433
19.8008
19.6347
18.6337
18.2675
17.6229
17.7352
19.5762
19.5908
17.8524
18.2675
20.1621
21.3145
21.4952
20.4746
19.7812
19.8057
19.5469
18.0624
16.4412
16.2703
16.4217
15.6258
14.9519
15.2351
15.865
15.7332
15.948
18.7558
20.3526
20.1524
19.5517
20.0986
20.2647
16.91
14.3708
15.6551
17.7059
18.8242
18.5068
17.7938
18.624
19.8887
21.085
22.3741
21.71
19.1171
18.0526
18.6826
18.7704
18.2626
18.9853
20.8702
21.6856
21.1729
21.5977
21.3731
17.6815
14.0388
15.2205
17.3397
17.413
16.4119
16.9393
17.8378
18.0331
17.994
18.5116
20.3233
19.9912
17.9647
17.3495
17.5009
18.6777
20.543
20.5772
20.3379
20.9874
20.2891
20.0059
20.8653
20.2256
18.1552
16.2117
15.2791
16.7733
17.9257
19.2441
21.1827
20.8262
19.6054
19.8935
22.1739
23.341
21.5343
19.122
18.1747
17.9745
17.1688
15.8504
15.8748
16.0897
15.6599
16.5145
16.4608
16.3875
18.1405
18.248
16.4168
15.4304
15.3767
17.2762
19.2832
19.6885
19.6933
19.542
18.5312
17.789
18.0917
18.8095
18.5702
17.5204
17.5643
18.121
18.5702
18.3749
17.8378
18.1601
18.7509
18.9023
17.8085
16.4608
17.4862
19.4687
20.1328
19.2734
17.6083
18.2235
19.4004
17.9013
16.2068
16.3045
16.8905
17.8427
17.9794
17.3788
19.3027
22.0616
21.6661
18.8437
16.8416
16.1678
15.6648
16.4315
17.5253
16.9833
15.6648
16.7782
19.4297
19.9766
19.6103
18.663
17.2762
18.58
19.4101
17.828
17.5399
19.039
19.918
18.5995
17.9843
18.7119
19.2002
20.4893
20.1963
18.7411
18.9121
19.3076
18.3407
16.8758
17.4471
18.6728
19.2343
18.6533
17.7255
17.8134
18.4921
19.3076
19.2002
18.2333
18.1747
17.2567
16.2508
17.828
19.5224
18.9121
17.7743
18.4433
18.1357
15.5281
15.2498
16.8123
16.3582
15.4256
17.496
20.1231
20.9288
20.7286
19.9424
19.1757
19.2783
20.0059
20.1524
19.332
19.2197
19.5029
19.1416
18.2284
18.331
19.6933
19.9668
18.5507
17.7059
19.2929
20.5039
19.2295
18.1259
17.9501
17.4325
18.7997
19.039
17.6766
18.121
19.3271
19.1171
17.9306
18.7949
20.8213
21.0752
19.6543
18.8925
18.8339
18.3456
17.2176
17.1493
18.204
18.2968
18.5507
19.0097
18.37
18.0087
19.2783
21.505
21.9493
20.2207
18.8339
18.9023
19.3125
19.1757
18.5409
17.1151
16.4266
17.2372
18.9462
21.1924
21.1045
18.4775
15.865
15.1326
16.0457
16.4217
16.7293
17.3495
16.8075
16.4461
18.663
20.543
21.4171
20.792
20.0498
20.3086
20.5088
21.7198
22.7062
22.4669
20.2256
16.9442
14.8884
14.8347
15.7088
16.0066
15.8309
16.2703
17.4862
17.5643
15.572
15.7039
19.7519
20.8457
19.5762
19.3808
18.829
18.3407
18.8339
20.1865
21.7784
21.8077
20.8555
20.1084
20.1084
20.5332
20.8409
21.4073
20.8897
19.625
19.2343
18.5165
17.9745
17.4764
16.5731
16.8319
17.828
19.122
18.4384
15.8943
15.6062
17.1786
17.7792
18.4482
18.1747
17.0711
18.0429
19.6738
19.2148
16.2606
15.8992
18.6044
18.1698
16.3143
18.1747
21.2559
21.8517
20.2549
19.0292
18.8925
17.7987
16.534
16.1385
16.954
18.6435
19.0585
19.6933
21.0167
20.1768
19.1171
20.0254
19.3759
17.4178
18.2773
18.3114
17.6522
18.5995
17.8476
16.0897
17.1444
18.6484
18.0331
16.783
16.1678
15.1912
14.7761
14.8298
16.0945
18.4335
19.3418
19.3711
18.3652
17.7499
18.1942
19.581
22.34
22.6867
20.0889
19.3027
19.9326
18.6874
18.0624
18.7216
19.2832
19.1074
17.7401
15.8162
14.5564
15.4402
18.2089
19.8252
19.8203
19.2441
19.0634
20.0254
19.9473
18.248
17.2714
17.3837
18.0771
18.7802
18.2968
17.0223
15.4451
16.3485
18.3749
17.911
16.3973
16.3924
18.8046
19.5127
19.3955
19.9912
18.8437
16.5633
16.0457
16.8612
17.8964
19.0195
19.4101
19.3711
19.3857
18.3163
18.0526
20.4209
21.4903
20.7432
19.9082
20.7383
22.5402
21.085
19.0488
19.3027
18.5263
19.8154
21.3536
19.7226
17.3251
16.3045
17.3788
19.3564
19.0439
17.8427
17.6669
18.8974
20.3623
21.1973
20.8116
19.2978
19.3125
20.4307
18.5947
16.9247
18.9511
21.0264
21.1534
19.2978
17.5057
17.3885
18.4189
19.0097
19.3466
19.7031
20.9483
22.3009
21.1436
18.4384
17.0467
16.6854
17.3104
18.0868
18.3505
17.3885
16.4363
16.9588
17.2128
16.9393
16.9393
17.9306
20.0107
21.2999
20.3526
19.3759
21.2999
23.5705
23.8684
22.1056
20.3428
19.6347
17.8231
16.5145
17.745
18.7509
18.3798
18.6142
19.5029
17.7304
14.6882
15.7869
18.1894
18.5409
18.9755
19.4248
18.2431
19.835
21.3926
20.3086
19.0683
17.2176
15.1814
14.8933
14.9763
14.5222
15.1912
16.7342
17.496
17.2665
17.3788
17.2421
18.2724
20.0107
20.001
19.4785
18.8925
17.5887
18.5409
20.0596
18.9072
16.661
15.4353
14.9275
15.9969
17.7499
18.5068
17.9403
16.5828
16.1971
17.9354
18.6581
17.828
19.8105
21.8761
20.875
19.7715
19.7324
20.4405
20.0791
18.2284
16.1678
16.6561
17.5741
17.4764
19.0537
19.5615
19.1123
19.7275
19.664
18.5409
17.7352
17.9257
17.618
18.0429
19.4199
19.2588
17.6962
17.9599
20.2354
21.4219
19.9863
17.8915
17.1932
15.909
14.4978
14.9617
17.1639
17.4423
16.7244
18.3993
19.0878
18.9414
19.8935
21.7442
22.4913
20.8897
18.829
18.6777
20.2256
21.4561
21.1729
19.3125
19.205
19.5078
18.0233
17.8915
18.7167
18.1698
17.662
18.414
18.7704
18.6826
17.452
16.2752
16.2313
16.3729
16.4022
17.0711
18.3456
18.4579
19.498
19.8594
17.9159
16.1678
15.45
15.6599
16.7
17.2274
17.1932
19.166
20.792
19.835
17.8573
16.4217
17.1395
18.1405
19.4541
21.7296
22.2276
20.7871
18.5165
16.0555
17.037
18.6826
19.8643
21.588
21.3731
21.1973
20.46
17.8378
16.3436
18.1942
19.957
19.8008
18.7363
17.1639
17.0809
17.4569
17.1444
18.2919
19.8643
20.0596
18.7558
18.121
18.4872
18.4238
18.3017
18.5995
18.6777
18.5995
20.4307
22.0763
22.462
22.8283
21.7296
19.8496
19.5908
20.1816
19.4004
17.994
16.158
15.3963
16.5145
17.2225
16.8465
16.827
18.956
20.3233
19.083
20.0205
21.212
18.7949
18.3163
19.7812
20.2695
20.3526
18.3456
16.6756
17.8476
18.6386
18.0282
17.6913
18.3456
18.624
18.7119
18.5458
18.5898
19.8398
20.753
20.543
19.1562
18.707
19.8398
20.0254
18.4286
17.1932
18.7656
21.378
21.3096
18.6044
15.8894
15.616
16.9637
18.3945
19.8691
19.6494
17.5887
17.2469
20.3428
22.2276
21.8028
21.1045
19.6933
18.5361
18.9609
18.7363
18.2187
18.7021
19.3564
20.0889
20.294
19.5469
18.4726
18.4726
